timestamp,ppg_value
0.0,0.7425512986640291
0.01,0.770357304244574
0.02,0.8240874836023392
0.03,0.8731930937387217
0.04,0.8560225739133693
0.05,0.8715321325275592
0.06,0.9212058446848141
0.07,0.9054074833434679
0.08,0.8743867954565626
0.09,0.8892471306509533
0.1,0.8547048982069513
0.11,0.839901451962949
0.12,0.8392523946719945
0.13,0.773213728150398
0.14,0.7601438587088503
0.15,0.7700237753219403
0.16,0.7452329202596905
0.17,0.7627897633911739
0.18,0.7255105800934292
0.19,0.7072656801581207
0.2,0.7681418248918269
0.21,0.7286807243033278
0.22,0.7363510007955637
0.23,0.7056925607824294
0.24,0.7299242901410323
0.25,0.7498671318700629
0.26,0.7267353769134896
0.27,0.7660197000130163
0.28,0.7478291054832135
0.29,0.7570878983292498
0.3,0.7504633626817321
0.31,0.803960389454548
0.32,0.7577054395788991
0.33,0.7276144153930039
0.34,0.7612187738594571
0.35000000000000003,0.7043323803476331
0.36,0.7240636669602833
0.37,0.661358055402199
0.38,0.6609212406820272
0.39,0.6802110741164755
0.4,0.6773293084999037
0.41000000000000003,0.6498274099624547
0.42,0.6293209520366416
0.43,0.6119888317677743
0.44,0.573266953248849
0.45,0.5791531514799375
0.46,0.5745851700860266
0.47000000000000003,0.5989494538830997
0.48,0.5732064589135462
0.49,0.5158320921822787
0.5,0.5523360966116412
0.51,0.5246228246833979
0.52,0.5046956083261589
0.53,0.5183782011105298
0.54,0.5101202512243133
0.55,0.4876254806361689
0.56,0.42487493264616166
0.5700000000000001,0.4115283872528747
0.58,0.39849012716500354
0.59,0.38381531832525007
0.6,0.3207155475741264
0.61,0.2967163296021474
0.62,0.24591986632402882
0.63,0.21542930680966538
0.64,0.23487536855222663
0.65,0.2249562250992816
0.66,0.17525617351063646
0.67,0.18762844244793533
0.68,0.16769474386782984
0.6900000000000001,0.1465900379523725
0.7000000000000001,0.1783721023632457
0.71,0.22168748924583273
0.72,0.21064230837563921
0.73,0.27854283504367466
0.74,0.22283561059097381
0.75,0.3451454157333706
0.76,0.3783642348529647
0.77,0.4233775528671833
0.78,0.4885505055339777
0.79,0.4992984896660291
0.8,0.5966619032492958
0.81,0.6656469339328401
0.8200000000000001,0.7440613738065024
0.8300000000000001,0.7481597844337478
0.84,0.7856571914059799
0.85,0.8307134330221685
0.86,0.8942988691640809
0.87,0.905829321704355
0.88,0.9042460177004267
0.89,0.9386916729611127
0.9,0.9337553096182857
0.91,0.9519549504494387
0.92,0.9076838102154621
0.93,0.9052712610798841
0.9400000000000001,0.8896930675438673
0.9500000000000001,0.8491695206680974
0.96,0.8712711217169006
0.97,0.8526770377261383
0.98,0.8297686689985468
0.99,0.8086622585902663
1.0,0.7683880308275535
1.01,0.7796634364847033
1.02,0.7730204414990048
1.03,0.7570845218172259
1.04,0.7686858369155004
1.05,0.7810355326799414
1.06,0.8161068027894469
1.07,0.7806999619284547
1.08,0.7867069039965802
1.09,0.7836810829816246
1.1,0.7462537222402331
1.11,0.7921897801865262
1.12,0.7960004176660378
1.1300000000000001,0.8501963315686261
1.1400000000000001,0.7881703489116559
1.1500000000000001,0.7948158732160282
1.16,0.7803426262636675
1.17,0.7455578852659357
1.18,0.7863335776297367
1.19,0.7643417956647464
1.2,0.7505887138944508
1.21,0.696582422978262
1.22,0.7324727633099662
1.23,0.652843483993986
1.24,0.6815525200743321
1.25,0.7021647244881014
1.26,0.6157198280597355
1.27,0.6115298600712674
1.28,0.6137699416244771
1.29,0.5882720327687737
1.3,0.5534227614715217
1.31,0.5790413101778357
1.32,0.5425954256379207
1.33,0.5657737640360861
1.34,0.5219250455680113
1.35,0.5637147124841003
1.36,0.49533873895005753
1.37,0.4877515042492482
1.3800000000000001,0.4929155921559545
1.3900000000000001,0.42382315368468737
1.4000000000000001,0.4312170361081727
1.41,0.4278077699738686
1.42,0.3324710250279092
1.43,0.3419754810596719
1.44,0.3122076824838992
1.45,0.2928150856936696
1.46,0.21740153607289317
1.47,0.1879244096663417
1.48,0.2052267264506735
1.49,0.18029873245166478
1.5,0.1647440592684952
1.51,0.15860093467372383
1.52,0.13404358637764766
1.53,0.16060081756696534
1.54,0.17564120536066988
1.55,0.17431978403268317
1.56,0.26141010920903796
1.57,0.26599662328180973
1.58,0.270786360263012
1.59,0.36023746038313575
1.6,0.37558767424432066
1.61,0.4705433076395453
1.62,0.5358984874699162
1.6300000000000001,0.5485923856153818
1.6400000000000001,0.64508797649179
1.6500000000000001,0.6865372491191787
1.6600000000000001,0.7459828809478718
1.67,0.8156915166218097
1.68,0.8072153004526507
1.69,0.8292436211116538
1.7,0.8528891969754546
1.71,0.8742772996216648
1.72,0.9037319674204577
1.73,0.9193244169449469
1.74,0.9179058893668919
1.75,0.9249253549057341
1.76,0.8965944763379338
1.77,0.9154824076279179
1.78,0.8605439506069107
1.79,0.9100835070140493
1.8,0.8445265143908778
1.81,0.7931238340573172
1.82,0.7715134404634447
1.83,0.7915946744625321
1.84,0.763080871398582
1.85,0.7742928581303373
1.86,0.7617419737760236
1.87,0.7450644031580645
1.8800000000000001,0.7257906442450777
1.8900000000000001,0.7110861899214972
1.9000000000000001,0.7372358426382932
1.9100000000000001,0.7698107277057984
1.92,0.7590446119222867
1.93,0.729737621121023
1.94,0.7646312271340248
1.95,0.7710557347373299
1.96,0.7423594855824663
1.97,0.7636045604871153
1.98,0.7569984106485108
1.99,0.7230625818117822
2.0,0.7476873230964716
2.0100000000000002,0.7408440740497302
2.02,0.7392615107861558
2.0300000000000002,0.7236590612609357
2.04,0.6527213558349808
2.05,0.6458052633306551
2.06,0.6614560040708791
2.07,0.6444605147643627
2.08,0.6280216525266517
2.09,0.6875892781117724
2.1,0.5988451552533807
2.11,0.5978411663736328
2.12,0.5809567189018602
2.13,0.5621111181414294
2.14,0.5287762997380362
2.15,0.5415720427572337
2.16,0.49528012744756605
2.17,0.4948164401349982
2.18,0.47539084273499777
2.19,0.47264720415093725
2.2,0.5053724642733093
2.21,0.39109499608262194
2.22,0.4261847683343868
2.23,0.3493561047577188
2.24,0.3477583076448485
2.25,0.35364793514161175
2.2600000000000002,0.29976969619983207
2.27,0.24245671050866574
2.2800000000000002,0.2190992244109102
2.29,0.2199885658934866
2.3000000000000003,0.15961172025035203
2.31,0.15540673059523555
2.32,0.130072707163507
2.33,0.09793623474589407
2.34,0.15051174602141787
2.35,0.11271004309996425
2.36,0.05627630864637279
2.37,0.11730404824708339
2.38,0.11709643559823034
2.39,0.1777933825275166
2.4,0.1745142214365752
2.41,0.2302474080536209
2.42,0.2904632672314462
2.43,0.34958756920803763
2.44,0.3575325311935668
2.45,0.4338045037287594
2.46,0.48821363341466595
2.47,0.54118501734447
2.48,0.650763990781092
2.49,0.671887102355711
2.5,0.6817346347914103
2.5100000000000002,0.7729089977224605
2.52,0.835983524466737
2.5300000000000002,0.8406746475679033
2.54,0.8054571404784092
2.5500000000000003,0.8441503368218024
2.56,0.8922319186806972
2.57,0.8499872935060933
2.58,0.8725529632130925
2.59,0.8717390858842106
2.6,0.8211498593288302
2.61,0.8255427543366735
2.62,0.7367239267629269
2.63,0.7687442609929167
2.64,0.7682462992652986
2.65,0.7288261516255592
2.66,0.7784337710469846
2.67,0.6962454987353837
2.68,0.7080252196200264
2.69,0.7131342680195693
2.7,0.737720813814684
2.71,0.6705188938091137
2.72,0.7291184130377212
2.73,0.7049962375826179
2.74,0.685847711365786
2.75,0.7223498796206616
2.7600000000000002,0.7204799699817006
2.77,0.7060142409397914
2.7800000000000002,0.7236055081571666
2.79,0.7142611782558218
2.8000000000000003,0.7244707263193727
2.81,0.7335756265955444
2.82,0.7487743472018125
2.83,0.6770915690709947
2.84,0.7428323401782898
2.85,0.6384287780814473
2.86,0.6650373159492802
2.87,0.6664431403046518
2.88,0.643374097328939
2.89,0.6064514926798156
2.9,0.5992777479138642
2.91,0.5767370372527543
2.92,0.5591570434047316
2.93,0.5771152117222151
2.94,0.5525361376085773
2.95,0.516384961763733
2.96,0.5406716476775727
2.97,0.5162983998603425
2.98,0.516938378504011
2.99,0.5018859608054768
3.0,0.45744986252263115
3.0100000000000002,0.45086147865966525
3.02,0.466133136036472
3.0300000000000002,0.4468746954088845
3.04,0.4141965919164985
3.0500000000000003,0.3964041919696575
3.06,0.3991449612389459
3.0700000000000003,0.33117337158977983
3.08,0.32891145266545396
3.09,0.2824248292045298
3.1,0.25145613215058227
3.11,0.25026778685005524
3.12,0.2138774743453977
3.13,0.18501853404709367
3.14,0.170199065684595
3.15,0.11905158411031316
3.16,0.11651129837792093
3.17,0.08236454589986689
3.18,0.0913675826986847
3.19,0.08292575183280335
3.2,0.09738563557588376
3.21,0.12569620745673726
3.22,0.11860259550473572
3.23,0.21641326933410604
3.24,0.1855941118656158
3.25,0.22603570265757641
3.2600000000000002,0.3297712137683026
3.27,0.3757038195594801
3.2800000000000002,0.42878372812974547
3.29,0.4870243437372106
3.3000000000000003,0.5306041634887811
3.31,0.5671617454613397
3.3200000000000003,0.6427857537115829
3.33,0.6754609788013539
3.34,0.7573051527119089
3.35,0.770687207987601
3.36,0.7875630627421581
3.37,0.8242270366320628
3.38,0.8590920065142276
3.39,0.8485218700141544
3.4,0.8476577271614512
3.41,0.870746514083807
3.42,0.8646729912653438
3.43,0.8373508064661604
3.44,0.8245116383274269
3.45,0.8244661861731769
3.46,0.769462214792634
3.47,0.7530213445498916
3.48,0.7518584843904607
3.49,0.7479744126289022
3.5,0.7465726774184254
3.5100000000000002,0.7620943790635452
3.52,0.7401819644724548
3.5300000000000002,0.712077429310937
3.54,0.712817311380195
3.5500000000000003,0.6906592341376385
3.56,0.7149191822053237
3.5700000000000003,0.7124417712217157
3.58,0.7307983541342083
3.59,0.7097742826225601
3.6,0.7447548307019121
3.61,0.7713464540091515
3.62,0.7366772777055098
3.63,0.7487075735428935
3.64,0.7535941654584434
3.65,0.7250459360995496
3.66,0.7328308046822216
3.67,0.7194484191545183
3.68,0.7106514359960467
3.69,0.6784994052193167
3.7,0.682535897268296
3.71,0.6782670973915553
3.72,0.684264035351634
3.73,0.6575671876224207
3.74,0.6691701857662276
3.75,0.5886181917349164
3.7600000000000002,0.6117523049174763
3.77,0.5833736240943076
3.7800000000000002,0.6167844551316951
3.79,0.538258644363486
3.8000000000000003,0.5273183088420659
3.81,0.5228785504422807
3.8200000000000003,0.47861783703401883
3.83,0.5042865622379822
3.84,0.48769686850382055
3.85,0.4954478109014089
3.86,0.4851498366193225
3.87,0.5029333685600728
3.88,0.4628046202468547
3.89,0.40657118733981573
3.9,0.37504358336487337
3.91,0.37985845172434046
3.92,0.3106060280748472
3.93,0.35199527710076056
3.94,0.30705782831668826
3.95,0.2399497689581697
3.96,0.18323001751333082
3.97,0.22600828674817205
3.98,0.1698639205581848
3.99,0.18169764804591956
4.0,0.10451081993308618
4.01,0.1198079119868612
4.0200000000000005,0.1331789934344793
4.03,0.1412378973401692
4.04,0.14481018595769604
4.05,0.1914867895387689
4.0600000000000005,0.18334889985266276
4.07,0.24122847752024848
4.08,0.2905079642857243
4.09,0.34817671910389153
4.1,0.4057276332188368
4.11,0.42050251643925485
4.12,0.4691737660821932
4.13,0.5908026111674131
4.14,0.6266361748350542
4.15,0.6569922262022406
4.16,0.7599059948465889
4.17,0.7738396643339934
4.18,0.8384608151408197
4.19,0.8476811489922306
4.2,0.9201204333695513
4.21,0.9337398534449275
4.22,0.9021179499584646
4.23,0.936572094930216
4.24,0.9300235032578832
4.25,0.9417132867507738
4.26,0.8799038066682076
4.2700000000000005,0.9043271306451223
4.28,0.8973303143390384
4.29,0.8168619518405665
4.3,0.8123456602376554
4.3100000000000005,0.7759357595494997
4.32,0.7999343759014457
4.33,0.8081538869313248
4.34,0.8141943413807398
4.3500000000000005,0.7730355120060488
4.36,0.8019731390166001
4.37,0.7308112323302832
4.38,0.7227833740429798
4.39,0.7614230061915582
4.4,0.7745624279658306
4.41,0.7695709328160731
4.42,0.7286610622437634
4.43,0.7781774796807712
4.44,0.7550153785833854
4.45,0.8025581094752
4.46,0.7970778101446705
4.47,0.7669431097498953
4.48,0.7736140574061499
4.49,0.7560243431550009
4.5,0.770876546849327
4.51,0.7840399076475317
4.5200000000000005,0.7285850864532507
4.53,0.748933203978235
4.54,0.7112265379173222
4.55,0.6902227514728049
4.5600000000000005,0.6903510183286796
4.57,0.6542434565172824
4.58,0.6504375265351982
4.59,0.6220295158554198
4.6000000000000005,0.6804117519827301
4.61,0.6249815172835382
4.62,0.5974247031585418
4.63,0.6078004273050581
4.64,0.590683422549332
4.65,0.5785642578464225
4.66,0.5873734309840889
4.67,0.5797541317421795
4.68,0.5385514481741434
4.69,0.5236146507563934
4.7,0.5143477018425345
4.71,0.45018329452476374
4.72,0.4468978115801526
4.73,0.48829600547499163
4.74,0.4685829604257768
4.75,0.3978382125610708
4.76,0.3868759595978709
4.7700000000000005,0.35045104396262977
4.78,0.3823674535135167
4.79,0.3085836435181828
4.8,0.2527457962697203
4.8100000000000005,0.20931985712526885
4.82,0.17386558975677155
4.83,0.19887586114585717
4.84,0.16730159155604807
4.8500000000000005,0.14897335394801664
4.86,0.1703400558412543
4.87,0.17195723279666644
4.88,0.25348623003743864
4.89,0.2619739335384799
4.9,0.27574240003646006
4.91,0.3496802782028575
4.92,0.36415857912231286
4.93,0.3937734802759547
4.94,0.5017923613442649
4.95,0.5360089076561652
4.96,0.5576456689938503
4.97,0.633282841090891
4.98,0.6723685254493773
4.99,0.7121877515636907
5.0,0.8110805075843703
5.01,0.8746854363538299
5.0200000000000005,0.8353773488841688
5.03,0.908212581396257
5.04,0.902501070561016
5.05,0.9208655788617331
5.0600000000000005,0.9264130960797033
5.07,0.9218999661401673
5.08,0.9384217162293883
5.09,0.9096813204613751
5.1000000000000005,0.921683345262725
5.11,0.8987056233121308
5.12,0.8768305720014982
5.13,0.8432843719570273
5.14,0.8323853736300417
5.15,0.8450385800166654
5.16,0.823614078948645
5.17,0.7768534406999129
5.18,0.7903617773160966
5.19,0.7971404812471984
5.2,0.7374964848075443
5.21,0.7850391808280587
5.22,0.7578880788958546
5.23,0.7876889162512375
5.24,0.76101783884547
5.25,0.7417459797154218
5.26,0.7501421540942518
5.2700000000000005,0.7918884621479206
5.28,0.7996194719908954
5.29,0.774832013285238
5.3,0.8091895371195483
5.3100000000000005,0.7547258245280086
5.32,0.7857891836372615
5.33,0.7527370021845324
5.34,0.7559000978511601
5.3500000000000005,0.7602394789078617
5.36,0.7266833702572723
5.37,0.7230602565825356
5.38,0.7392356103397554
5.39,0.6879617772106558
5.4,0.7042720849083048
5.41,0.6448218048999118
5.42,0.6678134659636324
5.43,0.6748516874601237
5.44,0.5740911362278454
5.45,0.6002988267538664
5.46,0.6205449483712837
5.47,0.5927820167906214
5.48,0.5957654219275416
5.49,0.5635962312482357
5.5,0.5682968580509578
5.51,0.5507893368969742
5.5200000000000005,0.5669491786170022
5.53,0.5306275244537605
5.54,0.5144141422746478
5.55,0.47686523516251517
5.5600000000000005,0.45189455297496406
5.57,0.4273679889934117
5.58,0.4180252602900285
5.59,0.3698814128904041
5.6000000000000005,0.3550074043889929
5.61,0.36399914349001655
5.62,0.30609945069553063
5.63,0.24987548100455198
5.64,0.2576384537319351
5.65,0.19828396489972885
5.66,0.1430811703457781
5.67,0.1534094408095659
5.68,0.12741252635398453
5.69,0.16211486852360596
5.7,0.17832492214575948
5.71,0.23121024712900445
5.72,0.22387406604418178
5.73,0.2419605846058839
5.74,0.30277138955433824
5.75,0.2773824050748313
5.76,0.3807495938733971
5.7700000000000005,0.4448917058932775
5.78,0.4488371021125338
5.79,0.5638608220999407
5.8,0.6014233735707967
5.8100000000000005,0.6385906640078011
5.82,0.7135203079357674
5.83,0.7976923201918169
5.84,0.7927468579181679
5.8500000000000005,0.8304842809041264
5.86,0.8442566797038182
5.87,0.8583090631572048
5.88,0.912077060020373
5.89,0.8831016675583637
5.9,0.9066139940988724
5.91,0.89095464725023
5.92,0.9041413169312753
5.93,0.888270379574617
5.94,0.8883288144411685
5.95,0.8354396142630183
5.96,0.8217150753421593
5.97,0.7864351394852901
5.98,0.7799350186102352
5.99,0.7814283963481814
6.0,0.7750985797563842
6.01,0.7249341275113539
6.0200000000000005,0.75588604417902
6.03,0.7603246557278127
6.04,0.735386036644294
6.05,0.7672523028892324
6.0600000000000005,0.708515696200346
6.07,0.7005772837463585
6.08,0.6922765991906717
6.09,0.7702979518633887
6.1000000000000005,0.7553134126149197
6.11,0.742522002319532
6.12,0.7520035009538217
6.13,0.7204950058549541
6.140000000000001,0.7991530851500106
6.15,0.7428098373720255
6.16,0.7359541543524272
6.17,0.7412149386604684
6.18,0.7250194223295424
6.19,0.7067970924727888
6.2,0.6701219584163742
6.21,0.6838160614613832
6.22,0.7003444608143174
6.23,0.6728815242749373
6.24,0.6634096841088559
6.25,0.6015278073540351
6.26,0.5771706306202382
6.2700000000000005,0.5840643972982695
6.28,0.5765678966142497
6.29,0.5892779974334734
6.3,0.5163957223363965
6.3100000000000005,0.5793317720282871
6.32,0.5314891114931453
6.33,0.5150982337877217
6.34,0.4905506871377667
6.3500000000000005,0.4632062545144533
6.36,0.5042994647103475
6.37,0.470325150417828
6.38,0.4199929413299566
6.390000000000001,0.3976538695045378
6.4,0.3944818545021927
6.41,0.41252853725927596
6.42,0.3399246089178274
6.43,0.28137814627124547
6.44,0.27855968338620374
6.45,0.24697474283878917
6.46,0.16249379267541258
6.47,0.19444598517434408
6.48,0.16606719462323477
6.49,0.16684694540379064
6.5,0.17794783829667435
6.51,0.15285255058826905
6.5200000000000005,0.11936313069481458
6.53,0.1057404562889144
6.54,0.20155676751419718
6.55,0.16533019428260515
6.5600000000000005,0.19219279690334098
6.57,0.22618665711794034
6.58,0.2723265045719181
6.59,0.3111038901973938
6.6000000000000005,0.35219852472994045
6.61,0.4066124584672913
6.62,0.47370698599105654
6.63,0.5179937889463304
6.640000000000001,0.5688829468714933
6.65,0.6396355799734597
6.66,0.6801017077018713
6.67,0.7636310022460662
6.68,0.7081662123291294
6.69,0.8244558734512324
6.7,0.8530862026536133
6.71,0.7964376402351302
6.72,0.8467820276390574
6.73,0.8508749054758011
6.74,0.8261961787794386
6.75,0.8337281340796765
6.76,0.8150674492911009
6.7700000000000005,0.8649389161567654
6.78,0.8293492785286769
6.79,0.818293277672797
6.8,0.7868222457697082
6.8100000000000005,0.7265114062356888
6.82,0.722875931242951
6.83,0.7304599754978685
6.84,0.6790871618098969
6.8500000000000005,0.7127622787394604
6.86,0.6842675352052027
6.87,0.6771522764376724
6.88,0.700255562339998
6.890000000000001,0.6952053494146466
6.9,0.6798750822003979
6.91,0.7182786805553538
6.92,0.6725645955558336
6.93,0.7156826991756341
6.94,0.7194638031461082
6.95,0.702297719028786
6.96,0.7182432656030447
6.97,0.6823564193738842
6.98,0.7289101729007545
6.99,0.6991386331771998
7.0,0.6845064438146965
7.01,0.7108335209359554
7.0200000000000005,0.660344479685943
7.03,0.6320179329637663
7.04,0.6151358280568734
7.05,0.6497032643388287
7.0600000000000005,0.5927503092238761
7.07,0.6469587682669644
7.08,0.546747195558734
7.09,0.6190398686438748
7.1000000000000005,0.5735975500427514
7.11,0.5557134760477427
7.12,0.5355915461417149
7.13,0.5476028151763329
7.140000000000001,0.5289224234018632
7.15,0.5458765352317407
7.16,0.5144135263505141
7.17,0.5051946304610203
7.18,0.48221858145239715
7.19,0.47593849484440165
7.2,0.46877790045570994
7.21,0.4054176190833822
7.22,0.3930945805765108
7.23,0.41713894681593194
7.24,0.37865311813348534
7.25,0.34294783978015136
7.26,0.31819589776174073
7.2700000000000005,0.2953643902093842
7.28,0.24498335510663147
7.29,0.21004429628283317
7.3,0.20427386623675842
7.3100000000000005,0.15293551001855343
7.32,0.16325922110046434
7.33,0.09963184961166383
7.34,0.15100308577620775
7.3500000000000005,0.13478781893763095
7.36,0.1333728884906616
7.37,0.16072414184086015
7.38,0.19471359334814117
7.390000000000001,0.2061356467486152
7.4,0.17499876854068602
7.41,0.22742871898139808
7.42,0.287657744196296
7.43,0.35245684390600324
7.44,0.4171242138595515
7.45,0.44481899882410914
7.46,0.5218936776762657
7.47,0.5565187134743154
7.48,0.613641175991896
7.49,0.6463269110066996
7.5,0.7034409393792803
7.51,0.7346301667731784
7.5200000000000005,0.7778389133801812
7.53,0.8517026871734751
7.54,0.8277349085081114
7.55,0.9227738932392017
7.5600000000000005,0.8821189536819483
7.57,0.876494014969357
7.58,0.8487051474153561
7.59,0.8748002918627769
7.6000000000000005,0.83313102098152
7.61,0.8331281573001986
7.62,0.8705769722216788
7.63,0.7923922951365355
7.640000000000001,0.8023772916686505
7.65,0.7435714581407477
7.66,0.7433882273119141
7.67,0.7712073346423642
7.68,0.7069801706955392
7.69,0.7547613725026047
7.7,0.7255802366774942
7.71,0.6954591992348266
7.72,0.7233996162979737
7.73,0.7341001950194912
7.74,0.7307129138541898
7.75,0.686693042187745
7.76,0.7113654816657292
7.7700000000000005,0.7274773300665778
7.78,0.7357379078698653
7.79,0.7543311695226677
7.8,0.7454265410790514
7.8100000000000005,0.7102783567939525
7.82,0.7456653447588097
7.83,0.745282341014491
7.84,0.7363862728074241
7.8500000000000005,0.7384333545348637
7.86,0.7215343777993407
7.87,0.7005067614703483
7.88,0.6751762878247262
7.890000000000001,0.6255337172357723
7.9,0.6589408326227345
7.91,0.6406133833732507
7.92,0.6294329388305723
7.930000000000001,0.5827982912662135
7.94,0.5764730340677028
7.95,0.6148096674604969
7.96,0.5811839073804205
7.97,0.5889933591618932
7.98,0.5659964508480296
7.99,0.5575111984134632
8.0,0.5687559917712219
8.01,0.5255113375711375
8.02,0.5271867396995625
8.03,0.500382450323483
8.040000000000001,0.4843910461253464
8.05,0.4679954754745678
8.06,0.45809616322153507
8.07,0.4178635103530863
8.08,0.43027758849041353
8.09,0.35328277495041516
8.1,0.3395461103062404
8.11,0.3037353991688474
8.120000000000001,0.31665287895086575
8.13,0.26030712451521965
8.14,0.2535081992404383
8.15,0.17468046413806282
8.16,0.19671992042478725
8.17,0.19879648806021008
8.18,0.17495362451727894
8.19,0.19844656952984072
8.2,0.17148010395888238
8.21,0.2312546337526968
8.22,0.27521957240707023
8.23,0.24639829561605456
8.24,0.2824887452654345
8.25,0.3692528307395609
8.26,0.42106518520452235
8.27,0.4264987171570336
8.28,0.4842478952810111
8.290000000000001,0.5440322654499835
8.3,0.576565793193631
8.31,0.6411141320878546
8.32,0.6912776121493645
8.33,0.7446531731479399
8.34,0.8041599341504849
8.35,0.8473031977749563
8.36,0.9075681272454478
8.370000000000001,0.8738300844314179
8.38,0.9353178329481342
8.39,0.9182698330649177
8.4,0.9255192659778262
8.41,0.9395435745564037
8.42,0.8916195819827866
8.43,0.9139794635878091
8.44,0.8943362858401015
8.45,0.884755232944736
8.46,0.8621168007407828
8.47,0.8927701603591202
8.48,0.805601318519274
8.49,0.7921207350712745
8.5,0.7763137871099953
8.51,0.7667146927382228
8.52,0.7566086403244904
8.53,0.7924725720865766
8.540000000000001,0.7952099478541986
8.55,0.7503978063313986
8.56,0.7467510957248252
8.57,0.7800520126507254
8.58,0.7619354922796217
8.59,0.7940593723353739
8.6,0.7895715805884201
8.61,0.7552409993596125
8.620000000000001,0.8274228563436297
8.63,0.8343873490375673
8.64,0.7793735711229186
8.65,0.7814878656094543
8.66,0.7913949188250696
8.67,0.7849586966768982
8.68,0.7826712514832986
8.69,0.8017802490584689
8.700000000000001,0.7396887140920702
8.71,0.711916995790991
8.72,0.6845079935202811
8.73,0.6847036213209666
8.74,0.6862865456160822
8.75,0.7139421828758428
8.76,0.6490785105268861
8.77,0.6540217615067385
8.78,0.6377934022086883
8.790000000000001,0.6549996119842023
8.8,0.6758477528857231
8.81,0.5978662086905198
8.82,0.5896623204420313
8.83,0.6145384024605736
8.84,0.5956145543921939
8.85,0.6095984137940148
8.86,0.5668881108635195
8.870000000000001,0.529076934022849
8.88,0.5314069007256668
8.89,0.5213480408017725
8.9,0.4905132336526748
8.91,0.4567442779711772
8.92,0.44068071134216924
8.93,0.4129173930520694
8.94,0.38696693858044895
8.950000000000001,0.3398667493986331
8.96,0.2920617485231998
8.97,0.27191232197683596
8.98,0.27182146343836333
8.99,0.20647988764886765
9.0,0.2187349395001929
9.01,0.1931643983010635
9.02,0.201082109722995
9.03,0.23495780827028537
9.040000000000001,0.22372063715169102
9.05,0.24137200871872233
9.06,0.23800580722239045
9.07,0.3208173508544626
9.08,0.3601550034316349
9.09,0.44136823873791536
9.1,0.4369257437132508
9.11,0.5031269090375263
9.120000000000001,0.5598295299954659
9.13,0.6461032202982713
9.14,0.663626765655996
9.15,0.7248828512156192
9.16,0.7814530300190765
9.17,0.8163606675623761
9.18,0.8408479544914582
9.19,0.8877273295997025
9.200000000000001,0.933231724130412
9.21,0.9045948148790861
9.22,0.942564225180163
9.23,0.9290099950460854
9.24,0.9708968465596031
9.25,0.9033866212906819
9.26,0.9143948737415661
9.27,0.9212160627022953
9.28,0.9311958311504183
9.290000000000001,0.8761097825803067
9.3,0.8462886166083589
9.31,0.8828897502089547
9.32,0.7907546025182444
9.33,0.758698334634105
9.34,0.8055177566499023
9.35,0.7743612293407387
9.36,0.755643516567762
9.370000000000001,0.7904888494050747
9.38,0.7785011798675388
9.39,0.7610514147730666
9.4,0.7474662157104265
9.41,0.799802642738944
9.42,0.7991986238931366
9.43,0.7866905665703324
9.44,0.8343288639668447
9.450000000000001,0.7711469324316131
9.46,0.761819360865319
9.47,0.7795559265309585
9.48,0.7908323896292514
9.49,0.7917100238747842
9.5,0.7728345574235399
9.51,0.7761032601728987
9.52,0.7279355298862864
9.53,0.7751484646911179
9.540000000000001,0.726034185690231
9.55,0.737666591387388
9.56,0.7045212078182845
9.57,0.6915548018208452
9.58,0.679058555722709
9.59,0.662022396337551
9.6,0.6530619802965508
9.61,0.6561596778489929
9.620000000000001,0.6191495548506756
9.63,0.6199586329333098
9.64,0.5916351335198958
9.65,0.6158721845573232
9.66,0.5575005766127621
9.67,0.6018466912013243
9.68,0.5474731080208497
9.69,0.5014654205237699
9.700000000000001,0.5197942541572202
9.71,0.4822792336330947
9.72,0.4947236519789706
9.73,0.4365895888619833
9.74,0.4143547729537555
9.75,0.3528364612903271
9.76,0.35470432791403994
9.77,0.27882031707291444
9.78,0.26626451624919323
9.790000000000001,0.28849610405955733
9.8,0.2603198969677158
9.81,0.22637876859945505
9.82,0.1731440477376819
9.83,0.17700642148083293
9.84,0.16700225398659804
9.85,0.1365859854959756
9.86,0.19942122893637498
9.870000000000001,0.19567919599770847
9.88,0.18897376431942337
9.89,0.22018899095636252
9.9,0.25710361192842074
9.91,0.24576992302760095
9.92,0.33137796422611565
9.93,0.3714194513138252
9.94,0.4175605643827982
9.950000000000001,0.489341263999705
9.96,0.592548915838454
9.97,0.6221960630980709
9.98,0.6486312450921162
9.99,0.7249396076627799
10.0,0.7897105738567256
10.01,0.8197774682322918
10.02,0.8349287356474024
10.03,0.8470129668832976
10.040000000000001,0.8984447389861479
10.05,0.90573300373436
10.06,0.9244832379761877
10.07,0.9197801152678092
10.08,0.9246497128916839
10.09,0.8796144542147233
10.1,0.9081911335604784
10.11,0.8668550716027588
10.120000000000001,0.8912554878630091
10.13,0.8101524715251462
10.14,0.8461952944936292
10.15,0.793859941239216
10.16,0.7587629353245436
10.17,0.7488647726510294
10.18,0.7415299459106613
10.19,0.750145656046211
10.200000000000001,0.7470615407029285
10.21,0.7197290270051144
10.22,0.7318940863221715
10.23,0.7824667652824838
10.24,0.7762319414244369
10.25,0.7510270674736389
10.26,0.7461194753979095
10.27,0.7515884711797556
10.28,0.7653083305447258
10.290000000000001,0.729481602454526
10.3,0.7458925065166133
10.31,0.7110309336879892
10.32,0.7522775805197731
10.33,0.750138711597063
10.34,0.7146833882479495
10.35,0.7490946020400916
10.36,0.672305082624216
10.370000000000001,0.6519745178226533
10.38,0.6742487734351207
10.39,0.6765818341230008
10.4,0.6747404745807335
10.41,0.6106141089179677
10.42,0.6301671407593781
10.43,0.5907565469052697
10.44,0.5745031871903192
10.450000000000001,0.5860569904400594
10.46,0.569398499155491
10.47,0.5082696965098163
10.48,0.5664523283800521
10.49,0.5534175909414865
10.5,0.49666264454972664
10.51,0.5070119038059282
10.52,0.4949366952689008
10.53,0.4733733062956311
10.540000000000001,0.4364610855934613
10.55,0.4125820697470016
10.56,0.4034400181654283
10.57,0.40429675522514563
10.58,0.3617817237811581
10.59,0.311132525955794
10.6,0.3057758390982814
10.61,0.19272818642731823
10.620000000000001,0.25204259917966915
10.63,0.1576827529826497
10.64,0.16214281139377867
10.65,0.1221594076886434
10.66,0.10000574552171856
10.67,0.1427998151503227
10.68,0.0999428632496299
10.69,0.1192400620413068
10.700000000000001,0.11881603403318168
10.71,0.14679345697876614
10.72,0.16160981037685546
10.73,0.16217695263286197
10.74,0.2516505973164287
10.75,0.26221332806605935
10.76,0.287510744411375
10.77,0.3661673799339566
10.78,0.4655349480578836
10.790000000000001,0.5080322476849553
10.8,0.5380514476409427
10.81,0.593588960490874
10.82,0.6469459851322021
10.83,0.7497463757241549
10.84,0.7552041693608396
10.85,0.7940805884082727
10.86,0.8389179300893567
10.870000000000001,0.8455219463452961
10.88,0.8517842843754979
10.89,0.8638581866741708
10.9,0.8708729874154365
10.91,0.8699697014398167
10.92,0.8804115053319276
10.93,0.8541370472587776
10.94,0.8551969979952109
10.950000000000001,0.8203491898877717
10.96,0.806244703215297
10.97,0.7415104475738302
10.98,0.7900107912194062
10.99,0.7614005211920046
11.0,0.7624030654042318
11.01,0.6634210956753527
11.02,0.7674194144256072
11.03,0.7116322842832318
11.040000000000001,0.736959931290613
11.05,0.6881911593634293
11.06,0.7271938478570853
11.07,0.6929177538838805
11.08,0.7068689918334385
11.09,0.7687006921136229
11.1,0.7255705727121871
11.11,0.7382306639382079
11.120000000000001,0.755010961915929
11.13,0.746810937661881
11.14,0.7371301339832427
11.15,0.7377472348302889
11.16,0.7771112656907843
11.17,0.7127144414097213
11.18,0.7075343732871348
11.19,0.7138640977341323
11.200000000000001,0.7008379295510707
11.21,0.6874023705501753
11.22,0.6592039808118094
11.23,0.6030701300235043
11.24,0.6499910796945739
11.25,0.5722340596722943
11.26,0.5906764270057347
11.27,0.5535963405126353
11.28,0.5569083635221436
11.290000000000001,0.5544147316101606
11.3,0.5435750402126462
11.31,0.5355326802128444
11.32,0.5520601945792241
11.33,0.5150654670387546
11.34,0.4875326373688396
11.35,0.5015413648369297
11.36,0.49153029170348495
11.370000000000001,0.4197330653988503
11.38,0.44115073663193616
11.39,0.4212211247371919
11.4,0.3739543019711511
11.41,0.3846886303284829
11.42,0.32144438991732266
11.43,0.297546620719141
11.44,0.26015645530286285
11.450000000000001,0.23407317949120093
11.46,0.17994959197637467
11.47,0.14545970265158994
11.48,0.19051467909527242
11.49,0.11649427128913042
11.5,0.09963265930657358
11.51,0.06604076812100598
11.52,0.09970750698494535
11.53,0.09121309438564577
11.540000000000001,0.172699595446926
11.55,0.18081159676652642
11.56,0.17242361129460743
11.57,0.27570144503518546
11.58,0.29039822969264195
11.59,0.30974639669449266
11.6,0.3138828259953657
11.61,0.47817827226955595
11.620000000000001,0.4532283191687695
11.63,0.5058569839095131
11.64,0.6233683945779965
11.65,0.7102841653731644
11.66,0.7378087120965493
11.67,0.7659033893138697
11.68,0.807553479141819
11.69,0.8480145825540719
11.700000000000001,0.8737388358978635
11.71,0.8838498369865728
11.72,0.8938230941994872
11.73,0.8973986565287344
11.74,0.8830278599749054
11.75,0.8894983695394072
11.76,0.8488810418611741
11.77,0.8724508023460582
11.78,0.8373959037380031
11.790000000000001,0.8182609744214905
11.8,0.8301009394438431
11.81,0.8406998435220988
11.82,0.8144690142148728
11.83,0.744652052359739
11.84,0.7464061128669345
11.85,0.7812647607845454
11.86,0.7320384701535279
11.870000000000001,0.7460291453715153
11.88,0.7629461007591192
11.89,0.7303426022536637
11.9,0.7578921862126169
11.91,0.7299137350933607
11.92,0.751435517490452
11.93,0.7771032038538361
11.94,0.7381615825254791
11.950000000000001,0.7869456973017996
11.96,0.777785520606777
11.97,0.7898295292940833
11.98,0.7792634231926541
11.99,0.7994185116609076
12.0,0.7635638884888623
12.01,0.740933363054769
12.02,0.7413102442024342
12.030000000000001,0.7371552503434278
12.040000000000001,0.7111886893835616
12.05,0.6954609915214655
12.06,0.6628988095333447
12.07,0.648101913610557
12.08,0.6162420602609607
12.09,0.6729109193501908
12.1,0.591950842278471
12.11,0.5919153006219469
12.120000000000001,0.579823935756455
12.13,0.6054500919469147
12.14,0.5683480697587998
12.15,0.5929680571688052
12.16,0.5391513378973928
12.17,0.549329811649854
12.18,0.5116275052876781
12.19,0.564538986287344
12.200000000000001,0.4730036485832345
12.21,0.48801387308163896
12.22,0.47405064793947915
12.23,0.44531351019523024
12.24,0.4056901624144604
12.25,0.3788331352170545
12.26,0.35316494662079945
12.27,0.3184821588838227
12.280000000000001,0.3131740704836682
12.290000000000001,0.31188473151073515
12.3,0.22204101266345214
12.31,0.17931576881958297
12.32,0.1878671159409996
12.33,0.2327356582435666
12.34,0.14710110613703334
12.35,0.19953407314359103
12.36,0.2050218892972635
12.370000000000001,0.16695187752297114
12.38,0.21225413244013341
12.39,0.2637551959891525
12.4,0.2533479040418671
12.41,0.2987913961994958
12.42,0.3375302643227908
12.43,0.37976420689457085
12.44,0.4435330077240622
12.450000000000001,0.48830805281077766
12.46,0.5752201172842558
12.47,0.6150393263219436
12.48,0.6936533797617991
12.49,0.7060258895064551
12.5,0.7968929250018053
12.51,0.8511719281354101
12.52,0.824224015228359
12.530000000000001,0.907743929312232
12.540000000000001,0.9501664304784693
12.55,0.911397950041099
12.56,0.9858041784913111
12.57,0.9606222964979815
12.58,0.9326668343767731
12.59,0.9398048771675646
12.6,0.9421853987896873
12.61,0.9168822457774727
12.620000000000001,0.9109622937663807
12.63,0.8607913064249852
12.64,0.8681549813494441
12.65,0.8161482114417034
12.66,0.8308318784011735
12.67,0.80045865983273
12.68,0.794324638493901
12.69,0.8316169069513533
12.700000000000001,0.8239662944424718
12.71,0.8113265183560217
12.72,0.7734974554355729
12.73,0.7933892665833757
12.74,0.8315936886827482
12.75,0.8118700837878552
12.76,0.8654974269801665
12.77,0.8260702876950224
12.780000000000001,0.8244405491419956
12.790000000000001,0.8144634073865523
12.8,0.8237921027039738
12.81,0.8144434081927316
12.82,0.82856057293805
12.83,0.826482182776057
12.84,0.7772261329837299
12.85,0.7529268927705892
12.86,0.7278201601917119
12.870000000000001,0.7656406421552209
12.88,0.7133919721343955
12.89,0.67338486078831
12.9,0.7143524984280364
12.91,0.7458494278626747
12.92,0.6742339626886655
12.93,0.678910370798337
12.94,0.648477216573058
12.950000000000001,0.6320049161933069
12.96,0.6433953043710647
12.97,0.6051464329952092
12.98,0.606978342610558
12.99,0.5972782401341218
13.0,0.5633889588866585
13.01,0.5881270903605249
13.02,0.5475365828407558
13.030000000000001,0.5181823593310176
13.040000000000001,0.5287686130650165
13.05,0.4753737120026921
13.06,0.4726952502389362
13.07,0.44586031200918586
13.08,0.44242257951860314
13.09,0.398837531749766
13.1,0.35671715081596833
13.11,0.34459486683765883
13.120000000000001,0.32700199314471773
13.13,0.27934762229464083
13.14,0.24077558629976686
13.15,0.18844224817933897
13.16,0.17620600575034412
13.17,0.1811906160344768
13.18,0.16863077012747565
13.19,0.17954434855966397
13.200000000000001,0.19393968601668743
13.21,0.22122781625443208
13.22,0.23199448274373444
13.23,0.27623941239184885
13.24,0.30525345356124867
13.25,0.30385697825612673
13.26,0.37691017778552993
13.27,0.4484643274420337
13.280000000000001,0.4807022861799896
13.290000000000001,0.5790409929841318
13.3,0.6574241733128787
13.31,0.7062541992267685
13.32,0.726976466300592
13.33,0.8143713179495061
13.34,0.8279945178170715
13.35,0.8550057990202297
13.36,0.8802099447024309
13.370000000000001,0.9117614277035906
13.38,0.9273620212575978
13.39,0.9506180500882819
13.4,0.954552213433646
13.41,0.9492290376056447
13.42,0.9520682059482557
13.43,0.9578368284134157
13.44,0.9378769146533927
13.450000000000001,0.8661937285745923
13.46,0.82406250377529
13.47,0.8844376630842088
13.48,0.8149119380353653
13.49,0.8244406231405631
13.5,0.7889310931958733
13.51,0.7629655813999292
13.52,0.8068247788289878
13.530000000000001,0.8055622833543884
13.540000000000001,0.7719814174563636
13.55,0.7255356746564438
13.56,0.7726612888055625
13.57,0.7963601437544716
13.58,0.7576695884308703
13.59,0.7989642637560492
13.6,0.7979967479461316
13.61,0.8140278876582159
13.620000000000001,0.8048768205100764
13.63,0.7796180231613709
13.64,0.8257703533691944
13.65,0.7901114269207347
13.66,0.7855806025924224
13.67,0.755353719745196
13.68,0.7544908893522178
13.69,0.7308100391532427
13.700000000000001,0.7316993230455552
13.71,0.758025045681283
13.72,0.6717649897682977
13.73,0.6494668161515588
13.74,0.7024530763444631
13.75,0.6486018468559697
13.76,0.6231291410444482
13.77,0.6475448432094205
13.780000000000001,0.5973258063221457
13.790000000000001,0.6399416863668513
13.8,0.6025252277889237
13.81,0.5650749529593759
13.82,0.6135253579528386
13.83,0.5395408831801853
13.84,0.5572834261954922
13.85,0.5332150575589759
13.86,0.5398746029529982
13.870000000000001,0.5275810180953803
13.88,0.47249833018325543
13.89,0.43164972951453323
13.9,0.4333841876143997
13.91,0.37984513119845165
13.92,0.4107803732113424
13.93,0.3374271297579711
13.94,0.2945167868082764
13.950000000000001,0.2756234013802195
13.96,0.21105066481241525
13.97,0.19177604570404141
13.98,0.21635325434773345
13.99,0.15444847463328737
14.0,0.1309643210415189
14.01,0.15816559429195648
14.02,0.17117302424682723
14.030000000000001,0.16640139809850538
14.040000000000001,0.18606542564603948
14.05,0.16766283526175005
14.06,0.18128634235786215
14.07,0.2828564901692145
14.08,0.28372749799457425
14.09,0.3327747194072651
14.1,0.4201329436972376
14.11,0.457557924533943
14.120000000000001,0.5118550638741057
14.13,0.6072796094960067
14.14,0.5997653890298413
14.15,0.6885916871324718
14.16,0.7186892553915211
14.17,0.7684396620284507
14.18,0.836169642342023
14.19,0.8461345899077672
14.200000000000001,0.8730119487641146
14.21,0.9042654304635072
14.22,0.8841337011802788
14.23,0.8790886040172022
14.24,0.8739823422404939
14.25,0.8473150731101464
14.26,0.927565080458684
14.27,0.8422684141488929
14.280000000000001,0.8455174263349081
14.290000000000001,0.826083427730811
14.3,0.8205377466029619
14.31,0.8136738334151424
14.32,0.7975670756199306
14.33,0.7497853024825963
14.34,0.7463216468044856
14.35,0.746331737710752
14.36,0.7270725211758464
14.370000000000001,0.7644491263026996
14.38,0.7373954797281117
14.39,0.7432474694506689
14.4,0.7437317302306102
14.41,0.7585437248471648
14.42,0.7400416236103624
14.43,0.7105449293918034
14.44,0.7519724377595116
14.450000000000001,0.7302464977713119
14.46,0.7333258735046919
14.47,0.7567633577166701
14.48,0.7675141518241895
14.49,0.73377968829321
14.5,0.7316604016008776
14.51,0.7523215808370931
14.52,0.7067211120509661
14.530000000000001,0.7457721535321904
14.540000000000001,0.6845499291081811
14.55,0.6161045189359614
14.56,0.6565638446547338
14.57,0.6321164811406295
14.58,0.6370776424290897
14.59,0.6084485877138176
14.6,0.576389761755159
14.61,0.5391707094943541
14.620000000000001,0.5502855831693855
14.63,0.5248170027314386
14.64,0.5203863254888657
14.65,0.536336482227399
14.66,0.5499727874551106
14.67,0.5096606766563418
14.68,0.460948019804585
14.69,0.4833537394423278
14.700000000000001,0.4836107219839832
14.71,0.42378446712511
14.72,0.41287315679754055
14.73,0.39204305832731573
14.74,0.3474537757480405
14.75,0.35117484686647327
14.76,0.30371398840639496
14.77,0.2849399172626514
14.780000000000001,0.22448013456229918
14.790000000000001,0.2045439391138415
14.8,0.20252815860859408
14.81,0.15262866020964325
14.82,0.17877869348709455
14.83,0.11462683643789012
14.84,0.11839267224362643
14.85,0.13068219515467314
14.86,0.08120872655581864
14.870000000000001,0.08459343525985157
14.88,0.10869652391501612
14.89,0.19793959735355784
14.9,0.19059706223553197
14.91,0.3008748267293197
14.92,0.2763563877775726
14.93,0.3438251534199608
14.94,0.42851527272248635
14.950000000000001,0.4952323354411051
14.96,0.5535251073462409
14.97,0.5907163351261125
14.98,0.6410065569152287
14.99,0.6824606151774741
15.0,0.7334297095993046
15.01,0.744855669442011
15.02,0.7741085071636351
15.030000000000001,0.8210996301361371
15.040000000000001,0.8390252279839321
15.05,0.8473746108793122
15.06,0.8812927662979727
15.07,0.8888376039277168
15.08,0.8653527515228985
15.09,0.8879027870699117
15.1,0.8161680860782063
15.11,0.8219764748418803
15.120000000000001,0.7927588645245093
15.13,0.7485839455668689
15.14,0.7706890507677009
15.15,0.7526832089019864
15.16,0.7741482653844591
15.17,0.7411233289603628
15.18,0.6933524578935186
15.19,0.7506698031259605
15.200000000000001,0.731697069986862
15.21,0.7153186763557354
15.22,0.6975285370033035
15.23,0.6834148358214736
15.24,0.7005006800033974
15.25,0.7381167941816208
15.26,0.7609370660113683
15.27,0.7577008180087987
15.280000000000001,0.7153551723145817
15.290000000000001,0.7031270703681973
15.3,0.7316704113887007
15.31,0.6865905503128268
15.32,0.7294323409463891
15.33,0.7121904716152654
15.34,0.6961917140549775
15.35,0.6599596561887453
15.36,0.6950750653446874
15.370000000000001,0.6578099175206595
15.38,0.6289532619080339
15.39,0.5757075256932094
15.4,0.6250429754003461
15.41,0.6512403408047065
15.42,0.6350754310254482
15.43,0.5745711232145388
15.44,0.5595737367716621
15.450000000000001,0.5729818763760209
15.46,0.5299951505396215
15.47,0.5499855629559862
15.48,0.5513521129810647
15.49,0.5524386530723359
15.5,0.5125355261325423
15.51,0.49906273728518774
15.52,0.4710966531890948
15.530000000000001,0.457457144359448
15.540000000000001,0.4538552704067366
15.55,0.4475590491110574
15.56,0.43758866938895247
15.57,0.3741000586829046
15.58,0.39888045185168886
15.59,0.330367591162795
15.6,0.3061265901352246
15.610000000000001,0.25952867860802875
15.620000000000001,0.19202129576037227
15.63,0.23845185733012658
15.64,0.2095341004910097
15.65,0.16459489775821307
15.66,0.15509863981161234
15.67,0.15343220152586662
15.68,0.10113961801056058
15.69,0.1260165856326827
15.700000000000001,0.16486211983197135
15.71,0.13531743097731885
15.72,0.19446895506490985
15.73,0.18882502717222044
15.74,0.2682739179452747
15.75,0.30130598449812823
15.76,0.3150780117270801
15.77,0.43103097209919383
15.780000000000001,0.44407649514903175
15.790000000000001,0.4994769055422802
15.8,0.5792085197289815
15.81,0.6559756688849977
15.82,0.659699492756774
15.83,0.7324727453757421
15.84,0.7841486167700095
15.85,0.8275974543308843
15.860000000000001,0.8469278969818247
15.870000000000001,0.8587883687512873
15.88,0.8655477948245837
15.89,0.8964677082226459
15.9,0.8742148122770456
15.91,0.8305153605492099
15.92,0.8991226380519892
15.93,0.8983451573724508
15.94,0.8101497977676225
15.950000000000001,0.8239506682034667
15.96,0.8428242052190607
15.97,0.8572463581709804
15.98,0.7940565288095164
15.99,0.761426946332535
16.0,0.7601143266932459
16.01,0.7842248898386307
16.02,0.730495144739001
16.03,0.7218056767083219
16.04,0.7265329873775338
16.05,0.7160756631512483
16.06,0.7426501323107855
16.07,0.7804773318123265
16.080000000000002,0.756147957663951
16.09,0.7486286340253535
16.1,0.7530054015558948
16.11,0.7288237961529723
16.12,0.7871650063081782
16.13,0.7669412117228657
16.14,0.7640162412500708
16.15,0.8372293409894092
16.16,0.7668054150870608
16.17,0.7357225781554256
16.18,0.733621267717556
16.19,0.7579375736248373
16.2,0.7220183519812027
16.21,0.6734913658113363
16.22,0.7125841381563818
16.23,0.6626329761726066
16.240000000000002,0.7060776333045757
16.25,0.674950177945503
16.26,0.6281220233174498
16.27,0.6556830499688265
16.28,0.6179038599001494
16.29,0.6260529907068867
16.3,0.6088537739417164
16.31,0.5702617609034019
16.32,0.5661716718239092
16.330000000000002,0.594696251086739
16.34,0.5536792003842949
16.35,0.5403715606341869
16.36,0.5142399224001108
16.37,0.5293363081602441
16.38,0.5477623711896401
16.39,0.4560120739989925
16.4,0.45686619032552744
16.41,0.46203198723747435
16.42,0.400290720733688
16.43,0.38278233535870954
16.44,0.3184445259160008
16.45,0.32205642251600725
16.46,0.27932104860633017
16.47,0.2790814369152577
16.48,0.26016667290311246
16.490000000000002,0.27257752313723577
16.5,0.2132700246740699
16.51,0.19963038169002856
16.52,0.19551864690289564
16.53,0.18929724166454112
16.54,0.21857822138689204
16.55,0.2255777196392133
16.56,0.26473420676320325
16.57,0.32629462409498133
16.580000000000002,0.31579909025613045
16.59,0.41146104674406175
16.6,0.4669799335820741
16.61,0.4891591580435605
16.62,0.5001928460853989
16.63,0.5908301669586857
16.64,0.6891692960974638
16.65,0.712349076023286
16.66,0.7395909538800192
16.67,0.7952346915675088
16.68,0.8644021491814353
16.69,0.8902672663166133
16.7,0.8982673697688085
16.71,0.914136384090928
16.72,0.925427356770424
16.73,0.9187178073540264
16.740000000000002,0.9751197003127301
16.75,0.925237354382684
16.76,0.9492499551449922
16.77,0.9418646639722627
16.78,0.9133132110261896
16.79,0.8628395498434093
16.8,0.8629822889391919
16.81,0.8351124005695595
16.82,0.7983532173523208
16.830000000000002,0.8110854248251335
16.84,0.7647039344801532
16.85,0.8083895131916932
16.86,0.7643924068553303
16.87,0.7755601124671354
16.88,0.7762501745225361
16.89,0.7651850552056323
16.9,0.78725500195788
16.91,0.7675967887942875
16.92,0.802890214493628
16.93,0.7578619533292682
16.94,0.7954512351807866
16.95,0.8395817722727492
16.96,0.7749701484458883
16.97,0.7819530777498144
16.98,0.8063412805302747
16.990000000000002,0.7940256001638114
17.0,0.7908365125965731
17.01,0.7847956868199183
17.02,0.7770508033073641
17.03,0.7752173633891364
17.04,0.7457804138098224
17.05,0.7167674839742083
17.06,0.722800181216391
17.07,0.7360659572942483
17.080000000000002,0.6763388283991802
17.09,0.6442328144523316
17.1,0.6789829545419718
17.11,0.6401006846909466
17.12,0.5835289296455394
17.13,0.642050932650635
17.14,0.6017190141918843
17.150000000000002,0.6026346876757759
17.16,0.6026390361849672
17.17,0.5890345467627568
17.18,0.5889459221498085
17.19,0.5495121955913496
17.2,0.5550742999582445
17.21,0.5193320781526658
17.22,0.5208766123074982
17.23,0.4944772062244752
17.240000000000002,0.4334089368079994
17.25,0.45074466828308724
17.26,0.38429660792343245
17.27,0.38377027951954856
17.28,0.3428610515345429
17.29,0.34585072383573506
17.3,0.2709923428758416
17.31,0.24263917599599988
17.32,0.22846294424255828
17.330000000000002,0.20534273798843092
17.34,0.219282395023624
17.35,0.1604071610233972
17.36,0.1758174231875666
17.37,0.18570307530935076
17.38,0.24902257286139529
17.39,0.29147297400669536
17.400000000000002,0.28297673845602644
17.41,0.3204680434061331
17.42,0.37047207627611317
17.43,0.4443492535198998
17.44,0.449943335123099
17.45,0.5310639363066333
17.46,0.6032651155254953
17.47,0.6475160897015573
17.48,0.6934272590263272
17.490000000000002,0.7613811177839188
17.5,0.7230953480268576
17.51,0.8391961524758623
17.52,0.8428947800912009
17.53,0.8434495510407647
17.54,0.9164210942388239
17.55,0.9490986463093893
17.56,0.9215448290111197
17.57,0.9463891545042593
17.580000000000002,0.955906570645509
17.59,0.9390535564527431
17.6,0.9323743353813543
17.61,0.8952734570722204
17.62,0.8615802127924606
17.63,0.8043187504051655
17.64,0.8156394891287498
17.650000000000002,0.7839693576072199
17.66,0.8355053552976183
17.67,0.7684991288513304
17.68,0.7638815270967566
17.69,0.7651041749449262
17.7,0.7481599886096787
17.71,0.7826883318452588
17.72,0.7301866081813521
17.73,0.7503974740660365
17.740000000000002,0.7325328642511165
17.75,0.7236524293960005
17.76,0.7440118969421452
17.77,0.7609880686564242
17.78,0.7552131328065832
17.79,0.7509051142280059
17.8,0.7345899908791245
17.81,0.7620870939205519
17.82,0.7254218597181744
17.830000000000002,0.7695912741647878
17.84,0.7452359107730607
17.85,0.6994803775457721
17.86,0.7127055599660814
17.87,0.6887999761207085
17.88,0.6982180483094722
17.89,0.7061255183036166
17.900000000000002,0.6185341108918999
17.91,0.6487317731560682
17.92,0.6285483071281034
17.93,0.634213951862123
17.94,0.6117828427470907
17.95,0.57886847123426
17.96,0.5782767371141132
17.97,0.5577047298072657
17.98,0.5902788331677079
17.990000000000002,0.5566099946656763
18.0,0.5883875620571536
18.01,0.5323293254741541
18.02,0.5042262638090785
18.03,0.4704857713778802
18.04,0.44597415535367557
18.05,0.4303244930923541
18.06,0.4488234065209726
18.07,0.42847944008835154
18.080000000000002,0.353298148574166
18.09,0.37926803012876437
18.1,0.31714400700801904
18.11,0.29988544412988577
18.12,0.3019555700523899
18.13,0.2563300023578328
18.14,0.20307929857070672
18.150000000000002,0.16563973546021124
18.16,0.11840484262722935
18.17,0.137422181560624
18.18,0.1419190798664857
18.19,0.12442972239300604
18.2,0.15114416863555022
18.21,0.1708671297907145
18.22,0.18667636234716717
18.23,0.20699920753414544
18.240000000000002,0.26213288294551607
18.25,0.31096963863714194
18.26,0.3241202127056927
18.27,0.4321053621648992
18.28,0.4522543947932396
18.29,0.5103272996755264
18.3,0.5811368812130866
18.31,0.6241535372320728
18.32,0.6912674481039236
18.330000000000002,0.7230960014133405
18.34,0.7445985281216038
18.35,0.8024601005682809
18.36,0.7979357712415687
18.37,0.8487504403963133
18.38,0.8611889742112345
18.39,0.8660836199717643
18.400000000000002,0.8702956447869189
18.41,0.8273442313269623
18.42,0.8489147635669576
18.43,0.8507182252445964
18.44,0.8363842024947957
18.45,0.7916172842709701
18.46,0.8242303475312308
18.47,0.7569393445604345
18.48,0.7798878862565288
18.490000000000002,0.7507708455673512
18.5,0.7118497339343324
18.51,0.7543538436759378
18.52,0.6781914041874568
18.53,0.7195700570542021
18.54,0.7179963796220747
18.55,0.6794890501392762
18.56,0.7273647488120908
18.57,0.6933516522470528
18.580000000000002,0.709600849047968
18.59,0.7135145074280127
18.6,0.708994084197235
18.61,0.7339143005069486
18.62,0.7358376360243132
18.63,0.6791038894124753
18.64,0.746477786602854
18.650000000000002,0.6758751064825019
18.66,0.7306369844906613
18.67,0.7245199388504916
18.68,0.6642295336792267
18.69,0.6675251661119999
18.7,0.6384284127101131
18.71,0.6441181623645761
18.72,0.6270946623948618
18.73,0.636598752232116
18.740000000000002,0.633834402856231
18.75,0.6216445818637285
18.76,0.5642304763058459
18.77,0.5598943606989889
18.78,0.5153402436060481
18.79,0.5246863300563446
18.8,0.5548180954012998
18.81,0.5600167158107459
18.82,0.4861954156538496
18.830000000000002,0.4905630798638233
18.84,0.492190152313957
18.85,0.4864605676941228
18.86,0.4473105319332643
18.87,0.45826421122040023
18.88,0.41862790382508663
18.89,0.4069666785046453
18.900000000000002,0.3950155043925699
18.91,0.35589739353209565
18.92,0.31701775428637174
18.93,0.2941117083019589
18.94,0.2636642542557334
18.95,0.22659593029485897
18.96,0.19955958266660562
18.97,0.21410232044012933
18.98,0.16662244942210716
18.990000000000002,0.1275237479001888
19.0,0.1353716784707875
19.01,0.10371050577191805
19.02,0.13608057273259117
19.03,0.12367125085793822
19.04,0.1262299785874626
19.05,0.15971105390758916
19.06,0.14261217340147242
19.07,0.18804267113194792
19.080000000000002,0.22825350814699868
19.09,0.3055236669376833
19.1,0.3927982784685354
19.11,0.4585421322789307
19.12,0.4788355448659172
19.13,0.5322878388695881
19.14,0.5358637221138408
19.150000000000002,0.617313325114409
19.16,0.6612204752327379
19.17,0.7096913303521737
19.18,0.7589803534124088
19.19,0.7849032174584297
19.2,0.776949825466078
19.21,0.8575421127557135
19.22,0.8287133616721633
19.23,0.8639464708556484
19.240000000000002,0.9049115134444595
19.25,0.8316531744360108
19.26,0.7850725913913438
19.27,0.8218869892508477
19.28,0.836861508708614
19.29,0.8384253406787652
19.3,0.7483113893668535
19.31,0.7694723716877386
19.32,0.7313032445926153
19.330000000000002,0.7248876988833357
19.34,0.7748472026431662
19.35,0.6720618352531017
19.36,0.7053242819867047
19.37,0.7066743133525143
19.38,0.7197961460746012
19.39,0.6990040627997375
19.400000000000002,0.7070371319961962
19.41,0.6958035817488809
19.42,0.7158759378098223
19.43,0.7072401812992171
19.44,0.7335554783612961
19.45,0.7146057639552539
19.46,0.7332149819876574
19.47,0.7238376620048983
19.48,0.7474523178362763
19.490000000000002,0.7161420022390194
19.5,0.6702640862250097
19.51,0.7294947573169176
19.52,0.669529093987877
19.53,0.6625835148482899
19.54,0.650135574049156
19.55,0.6801079107965425
19.56,0.5862566919357117
19.57,0.6906165385368683
19.580000000000002,0.6296358545347932
19.59,0.597588789683126
19.6,0.5789877977893247
19.61,0.57532458234949
19.62,0.5702177316181583
19.63,0.5633334176840173
19.64,0.5520753452871043
19.650000000000002,0.5323952804095432
19.66,0.5163759176291058
19.67,0.5070090649082977
19.68,0.4942842965336898
19.69,0.5107213970820542
19.7,0.48285748882531154
19.71,0.3850507134231304
19.72,0.4454313441740387
19.73,0.41173580379019553
19.740000000000002,0.3812079867034515
19.75,0.3450796117186386
19.76,0.3498386352047925
19.77,0.3156276064704375
19.78,0.2465452883245332
19.79,0.24373495521619187
19.8,0.18511857290752057
19.81,0.15133018831203543
19.82,0.1477021155695955
19.830000000000002,0.16565210611444983
19.84,0.1579431919874078
19.85,0.14489201082890285
19.86,0.1537431412040383
19.87,0.1606651312680025
19.88,0.1538847047190086
19.89,0.20498172517462038
19.900000000000002,0.24738309598593117
19.91,0.2870199220115357
19.92,0.34324013892903105
19.93,0.38352812135794745
19.94,0.43011156351475965
19.95,0.5031348368053469
19.96,0.5360259614166774
19.97,0.5737577927168718
19.98,0.6450177717752198
19.990000000000002,0.683704753390931
20.0,0.7326939882638389
20.01,0.7867192667007278
20.02,0.8080541114115066
20.03,0.8482817692171558
20.04,0.8349148266505597
20.05,0.8978673936554693
20.06,0.9018063533372884
20.07,0.8857968240964329
20.080000000000002,0.9158913681022041
20.09,0.9141433708466045
20.1,0.8448312857219195
20.11,0.8490653722040784
20.12,0.832249865319546
20.13,0.8108938417489038
20.14,0.8334090424767499
20.150000000000002,0.7939351017245776
20.16,0.7776449277848088
20.17,0.7259940525912767
20.18,0.7757224542305381
20.19,0.7265126572120258
20.2,0.7517255758037474
20.21,0.7552419783035034
20.22,0.7806604214831755
20.23,0.7233932223827013
20.240000000000002,0.6891359046392116
20.25,0.7664688456970496
20.26,0.8081799200817289
20.27,0.8003125159159947
20.28,0.7808632197830837
20.29,0.7672778518890199
20.3,0.7968638607994855
20.31,0.7548110862337932
20.32,0.7832547996703022
20.330000000000002,0.7773007708784713
20.34,0.7809518709546736
20.35,0.8083958631180349
20.36,0.7424467528407068
20.37,0.7082485724510176
20.38,0.7044074635857351
20.39,0.6499315016870956
20.400000000000002,0.6589975754675216
20.41,0.6506538550387675
20.42,0.6339654116706787
20.43,0.6360026978963637
20.44,0.6017850054389704
20.45,0.6343208857873553
20.46,0.5985701966148133
20.47,0.5884317286419963
20.48,0.5715281397378633
20.490000000000002,0.5724833223293926
20.5,0.5769660122586552
20.51,0.5270209220784532
20.52,0.5183219007697963
20.53,0.5108742257159323
20.54,0.46959707202484285
20.55,0.46115979469982904
20.56,0.4460008588920874
20.57,0.45109231286921514
20.580000000000002,0.4097511066545167
20.59,0.3789280987400037
20.6,0.3633858737013461
20.61,0.3104188897053582
20.62,0.29221868634662
20.63,0.252557206232887
20.64,0.23495489617657556
20.650000000000002,0.193586443525026
20.66,0.1341743980036785
20.67,0.1741930405624127
20.68,0.20377611965350836
20.69,0.194110538581853
20.7,0.20401506821272508
20.71,0.2268379538439392
20.72,0.22534152174854208
20.73,0.25953827159282344
20.740000000000002,0.27974063220400225
20.75,0.3311809431678624
20.76,0.40191553377178746
20.77,0.4688290709782769
20.78,0.49483494643601805
20.79,0.5453960495175832
20.8,0.6129932377968191
20.81,0.6824512006356933
20.82,0.6894148442823108
20.830000000000002,0.7192391751713356
20.84,0.802576385764074
20.85,0.8255388300656867
20.86,0.8731709692519958
20.87,0.9059891182225619
20.88,0.9168101237578984
20.89,0.9706420955932469
20.900000000000002,0.949640842927093
20.91,0.9475295880070622
20.92,0.9481186845596273
20.93,0.8974893642464884
20.94,0.9324075917631187
20.95,0.8908377900814803
20.96,0.8900228804069441
20.97,0.8328662772719915
20.98,0.8047967239628901
20.990000000000002,0.8425060954231532
21.0,0.8188358631977228
21.01,0.7787881962351392
21.02,0.7710520897250683
21.03,0.8103988044295036
21.04,0.7552842449569062
21.05,0.8186794075582562
21.06,0.7629171386515028
21.07,0.8007405570065325
21.080000000000002,0.7830056912696418
21.09,0.808410372973016
21.1,0.7866335131348006
21.11,0.798433925749296
21.12,0.8048156598186837
21.13,0.7812404912731061
21.14,0.8183301800438046
21.150000000000002,0.7854957875000688
21.16,0.7849558629375093
21.17,0.758407423887181
21.18,0.711640206708631
21.19,0.7518652692253878
21.2,0.7958722803996267
21.21,0.7434322045025196
21.22,0.7089939578472404
21.23,0.6870451491257025
21.240000000000002,0.6772796878358114
21.25,0.673496786883105
21.26,0.6197496285199968
21.27,0.657678947303086
21.28,0.6358408217216899
21.29,0.6239391547139679
21.3,0.6063287363731861
21.31,0.5859249543533337
21.32,0.5896414310859586
21.330000000000002,0.5762935285485937
21.34,0.542460976436239
21.35,0.5235529443649088
21.36,0.5229506671654178
21.37,0.5375289114492278
21.38,0.4541527180828472
21.39,0.42594077127163393
21.400000000000002,0.4371905055209886
21.41,0.4068016394769506
21.42,0.3798796674285806
21.43,0.350500042628623
21.44,0.3084350841261212
21.45,0.3158337726084455
21.46,0.2161816067539202
21.47,0.20593720720710007
21.48,0.19798254981294242
21.490000000000002,0.14333700359898935
21.5,0.16184996749480912
21.51,0.19490521639709837
21.52,0.15643375221713945
21.53,0.1670846260393549
21.54,0.14707002092346014
21.55,0.18291436799460215
21.56,0.21719779722642157
21.57,0.254399678917495
21.580000000000002,0.3327318875091326
21.59,0.36412567380108013
21.6,0.3785540548552301
21.61,0.46433758920470153
21.62,0.5269246421562732
21.63,0.5986557534563373
21.64,0.6647867348352369
21.650000000000002,0.6600565006734027
21.66,0.7148117442236555
21.67,0.7501469319402253
21.68,0.8129862926020904
21.69,0.8622025285231204
21.7,0.9005898875153627
21.71,0.8962735725373012
21.72,0.9035049516990389
21.73,0.9202333518031065
21.740000000000002,0.8979481561144174
21.75,0.9584348967477228
21.76,0.8650292765404831
21.77,0.8917842424715292
21.78,0.9169848914094816
21.79,0.8536781703333333
21.8,0.8308434745611947
21.81,0.8090343603358819
21.82,0.7961685336367562
21.830000000000002,0.8161798257271704
21.84,0.7226868989252229
21.85,0.7971440774108082
21.86,0.7232702273686354
21.87,0.7449339251267083
21.88,0.7393785246758635
21.89,0.7626202724842444
21.900000000000002,0.7153072423743413
21.91,0.7648927817259855
21.92,0.8037662804206253
21.93,0.7309265032957524
21.94,0.7687735121329538
21.95,0.7511431865065107
21.96,0.7755274743961247
21.97,0.7641380738536296
21.98,0.744722144183237
21.990000000000002,0.7632691658642041
22.0,0.7836713975602336
22.01,0.7271937455340478
22.02,0.7343016512991047
22.03,0.673900700168934
22.04,0.6653168600148022
22.05,0.6806339097340287
22.06,0.6862701128237987
22.07,0.6437895097962502
22.080000000000002,0.612177403061834
22.09,0.6034610754559374
22.1,0.5604713664931714
22.11,0.5884932116266703
22.12,0.5818998263420165
22.13,0.5397211232243649
22.14,0.5277109377726634
22.150000000000002,0.5328108201189571
22.16,0.5051487121969591
22.17,0.5008877565119362
22.18,0.5358358653991728
22.19,0.4673189891648301
22.2,0.44712107479834845
22.21,0.42055122552609964
22.22,0.429377041963069
22.23,0.3834527278056556
22.240000000000002,0.3455086157901581
22.25,0.3605711499338303
22.26,0.33194682171371004
22.27,0.25476889407779124
22.28,0.19462257823323767
22.29,0.22879719797999853
22.3,0.16199029471506216
22.31,0.1696332490085576
22.32,0.08583487235517911
22.330000000000002,0.13390075715805302
22.34,0.07593686355636835
22.35,0.1159042582600387
22.36,0.10320516589983723
22.37,0.09246569441364232
22.38,0.12364908484164418
22.39,0.1747888035211076
22.400000000000002,0.19544580597005176
22.41,0.2466184872855188
22.42,0.324181253392306
22.43,0.29526644041359124
22.44,0.4214672820853743
22.45,0.4440369164127699
22.46,0.4789261997059353
22.47,0.5261221649607359
22.48,0.6068260572537789
22.490000000000002,0.6836045574656873
22.5,0.7072896059722888
22.51,0.7862194781652633
22.52,0.7552756008928805
22.53,0.816919431335422
22.54,0.8112075705766846
22.55,0.8629315673175861
22.56,0.8832587402735539
22.57,0.855985032411652
22.580000000000002,0.8032855041810023
22.59,0.8581519205328398
22.6,0.8512248221875417
22.61,0.8352601320910447
22.62,0.8368661402629965
22.63,0.7668162282591974
22.64,0.7883360148133357
22.650000000000002,0.7828404772102132
22.66,0.7004430866005237
22.67,0.7345554446765864
22.68,0.7053664898620627
22.69,0.7070681271569309
22.7,0.7117145952607846
22.71,0.6904945057260157
22.72,0.6861726846845689
22.73,0.7039862640073744
22.740000000000002,0.6818468366239647
22.75,0.6857624521940182
22.76,0.7295589726464832
22.77,0.6918259935528901
22.78,0.7351699074762623
22.79,0.7314268115134466
22.8,0.6809761220489837
22.81,0.7012795666301163
22.82,0.7377821402108697
22.830000000000002,0.6806560265272272
22.84,0.6819741657607825
22.85,0.6905069206085147
22.86,0.6836995680314021
22.87,0.6450138358990694
22.88,0.6210060890094637
22.89,0.6499382672026872
22.900000000000002,0.6404864135827817
22.91,0.6071642200982648
22.92,0.5715418424426985
22.93,0.5368372762483326
22.94,0.5227979126660219
22.95,0.5407608296078094
22.96,0.5267239416425225
22.97,0.5378085751309426
22.98,0.5100443850192703
22.990000000000002,0.45049752778184116
23.0,0.4964959118875761
23.01,0.4375543898478122
23.02,0.4371240369367154
23.03,0.4351853833710789
23.04,0.45603190209553135
23.05,0.46018009785491515
23.06,0.38024658058170163
23.07,0.33654473220078795
23.080000000000002,0.3247234657240584
23.09,0.3030279887276873
23.1,0.24509551097881954
23.11,0.26186571130858877
23.12,0.19628055882393086
23.13,0.17365853597130795
23.14,0.15147098540953155
23.150000000000002,0.12370986350356333
23.16,0.11560973384402368
23.17,0.0709339406015966
23.18,0.06689361487591312
23.19,0.05641069970607668
23.2,0.10039871225881956
23.21,0.12506315298876172
23.22,0.14253020247155257
23.23,0.20207918608193362
23.240000000000002,0.20317381097768983
23.25,0.26344755496988315
23.26,0.2739289715533001
23.27,0.34394504598742226
23.28,0.4251475617321861
23.29,0.4866884927500922
23.3,0.5188711927802
23.31,0.5803313712936402
23.32,0.6013360843841774
23.330000000000002,0.677097813809326
23.34,0.7497458072212273
23.35,0.7812574662466186
23.36,0.8116833737005376
23.37,0.8267465049421964
23.38,0.8440237188329254
23.39,0.8403602326090374
23.400000000000002,0.8759045798569634
23.41,0.8686266238235522
23.42,0.8640593039287192
23.43,0.8306690628676076
23.44,0.7802600740756008
23.45,0.8375878749419549
23.46,0.7848653078651128
23.47,0.7587844065082116
23.48,0.7771095090699682
23.490000000000002,0.737295490171384
23.5,0.7567427460818432
23.51,0.7359536675054461
23.52,0.7294034473088908
23.53,0.6779637226106382
23.54,0.7335869239311604
23.55,0.7121020899093551
23.56,0.6998897567850442
23.57,0.7149967732391953
23.580000000000002,0.6762163905911976
23.59,0.7303210714472627
23.6,0.7024463641456331
23.61,0.6988309184631737
23.62,0.6972821046855051
23.63,0.7571516415795637
23.64,0.7161894845857878
23.650000000000002,0.7609553326677161
23.66,0.7079089606057675
23.67,0.6728121174999764
23.68,0.6753523830950152
23.69,0.7158079537298496
23.7,0.6704140424120669
23.71,0.6465544319567889
23.72,0.6469640188396588
23.73,0.6389978456373924
23.740000000000002,0.6374946001460419
23.75,0.6301953626244197
23.76,0.5755172434539266
23.77,0.5408193399076213
23.78,0.5494983739231866
23.79,0.5537006130637743
23.8,0.5158021283781916
23.81,0.5060258467037193
23.82,0.5254080830203745
23.830000000000002,0.5061258061772383
23.84,0.4965685553751827
23.85,0.46590221851207886
23.86,0.46313064998932385
23.87,0.43060422312892677
23.88,0.4521959522475076
23.89,0.43360574757368625
23.900000000000002,0.3442893758023083
23.91,0.33835768142874184
23.92,0.29711482040338905
23.93,0.28645933408062874
23.94,0.2689332811789728
23.95,0.20812683969743112
23.96,0.19129097033606887
23.97,0.16299550647242997
23.98,0.16720664700511947
23.990000000000002,0.14537065224260434
24.0,0.11414272884469583
24.01,0.12719785391238433
24.02,0.11055570931942126
24.03,0.12380876572693787
24.04,0.18238176251263397
24.05,0.19729121577344774
24.060000000000002,0.1676758391657821
24.07,0.2526393467884777
24.080000000000002,0.2955164089304796
24.09,0.30004445756504317
24.1,0.39743710202006405
24.11,0.4697666041745278
24.12,0.4676151454156834
24.13,0.5303998066807531
24.14,0.6311189070346857
24.150000000000002,0.6689545166175658
24.16,0.7262621700051328
24.17,0.7677425800264529
24.18,0.8094446108911091
24.19,0.8049484723366759
24.2,0.8859029643118856
24.21,0.9091000709628082
24.22,0.8910614932244422
24.23,0.9021207120802083
24.240000000000002,0.8693177448031486
24.25,0.9107532581411368
24.26,0.9027995060799876
24.27,0.875628809094549
24.28,0.8869246123655944
24.29,0.8370279311220926
24.3,0.8397336912020285
24.310000000000002,0.7868361680893441
24.32,0.7933231070693523
24.330000000000002,0.7758224575553833
24.34,0.7731127203886631
24.35,0.7506808392390063
24.36,0.749868608063798
24.37,0.7680737592919553
24.38,0.7387954138833112
24.39,0.7138359021657255
24.400000000000002,0.7926735579865521
24.41,0.7887131536829737
24.42,0.733330067931819
24.43,0.7828633426464865
24.44,0.760146956082364
24.45,0.7803929756038983
24.46,0.7823742616830961
24.47,0.7697134764937514
24.48,0.7543259956040947
24.490000000000002,0.7510698020044625
24.5,0.7382983273780541
24.51,0.730348532506269
24.52,0.7358336623024337
24.53,0.7078999525919024
24.54,0.7249686153411149
24.55,0.7279771406705315
24.560000000000002,0.665961122214662
24.57,0.6691957300771221
24.580000000000002,0.6603344493417989
24.59,0.6457635327202985
24.6,0.6238385909470856
24.61,0.6268834229647522
24.62,0.6099621078431234
24.63,0.5608888086074592
24.64,0.5985701317363951
24.650000000000002,0.5892446413031132
24.66,0.5419398579711223
24.67,0.5490899218782008
24.68,0.5514175882591799
24.69,0.5173100414177337
24.7,0.5301101665163866
24.71,0.5406914717341362
24.72,0.448577143883007
24.73,0.4115067447527155
24.740000000000002,0.42344947976494796
24.75,0.40476640646567524
24.76,0.35364778893502247
24.77,0.36111497148036825
24.78,0.2676085675022602
24.79,0.2837472790168253
24.8,0.22668840083559438
24.810000000000002,0.25429011482260766
24.82,0.23960707418529656
24.830000000000002,0.1615270046558038
24.84,0.15642585463808206
24.85,0.18482231587786843
24.86,0.16052255571469443
24.87,0.17958859203956765
24.88,0.20021989363192372
24.89,0.18294789691620095
24.900000000000002,0.2596851032050393
24.91,0.28476812189900735
24.92,0.33524121693373615
24.93,0.4296278989403005
24.94,0.4229337579651084
24.95,0.525947462222983
24.96,0.5584332259010935
24.97,0.6148917855541705
24.98,0.6934951850905356
24.990000000000002,0.7345324243918536
25.0,0.7864959938290779
25.01,0.8368309551301731
25.02,0.8427472445332334
25.03,0.864954301405102
25.04,0.8758804190766517
25.05,0.8963506500201622
25.060000000000002,0.9893172112670824
25.07,0.9524323202538129
25.080000000000002,0.8897841428188805
25.09,0.8814559016397444
25.1,0.9092438133668311
25.11,0.8949081211542157
25.12,0.8772609316814867
25.13,0.8406018976970816
25.14,0.825100387728841
25.150000000000002,0.817873662564424
25.16,0.7966670799820752
25.17,0.7312015175898048
25.18,0.7652242887599481
25.19,0.7432202941524237
25.2,0.7612465943731779
25.21,0.8221935744386806
25.22,0.7631451979876215
25.23,0.749719524990906
25.240000000000002,0.7809163085477175
25.25,0.7751667129884968
25.26,0.7780893892064703
25.27,0.7862005766866079
25.28,0.8217845309380506
25.29,0.7513093632373691
25.3,0.7869928727038423
25.310000000000002,0.7527617973256107
25.32,0.7812016567954505
25.330000000000002,0.7406619323610387
25.34,0.7424572236750808
25.35,0.7337239737309638
25.36,0.7492315651451031
25.37,0.7335221001973077
25.38,0.6694741516950844
25.39,0.6831634318730955
25.400000000000002,0.6503205410346783
25.41,0.622746654731562
25.42,0.6317399349336527
25.43,0.6160939756777161
25.44,0.6651821388284032
25.45,0.6086078089216641
25.46,0.5569845273031877
25.47,0.5650776873438863
25.48,0.5908166649304585
25.490000000000002,0.6046330680921151
25.5,0.5108469258539834
25.51,0.4921116092951414
25.52,0.5629437063463345
25.53,0.5137521875359512
25.54,0.46723677053677
25.55,0.47815873297239114
25.560000000000002,0.38334600307014344
25.57,0.41702395673457715
25.580000000000002,0.3962867582109173
25.59,0.3799164049631049
25.6,0.305250830460434
25.61,0.2987110432670778
25.62,0.24510463578313113
25.63,0.24243771661770455
25.64,0.1897543974397374
25.650000000000002,0.17761139107201707
25.66,0.145849506326399
25.67,0.17002612055061905
25.68,0.16809445579867402
25.69,0.14383024221686574
25.7,0.15778942754127973
25.71,0.1397012406276124
25.72,0.18863877718894134
25.73,0.2246006915736714
25.740000000000002,0.32193432592397253
25.75,0.2808750072291562
25.76,0.38709802897913975
25.77,0.4285719580127253
25.78,0.4670275845312842
25.79,0.5561861063248802
25.8,0.5805805130910643
25.810000000000002,0.6350673815366298
25.82,0.676330305936315
25.830000000000002,0.7522957503514551
25.84,0.7915226967698011
25.85,0.7888706482772674
25.86,0.8028975151158272
25.87,0.8508633755838804
25.88,0.8532217255770749
25.89,0.8788184221236045
25.900000000000002,0.9106870468825052
25.91,0.8691367625166029
25.92,0.87003731197637
25.93,0.8596557667293578
25.94,0.8616041365978184
25.95,0.7737540668220936
25.96,0.7915373440520251
25.97,0.7906249745650094
25.98,0.7943081359119215
25.990000000000002,0.7390632161421501
26.0,0.6928892840275712
26.01,0.7368131975039806
26.02,0.6990025017650479
26.03,0.6799222504901132
26.04,0.6889151699921662
26.05,0.6976413552822627
26.060000000000002,0.6891353325436684
26.07,0.6556574161617725
26.080000000000002,0.7292980317528913
26.09,0.7419368041357544
26.1,0.7318145617781601
26.11,0.6946269700367329
26.12,0.7175914648342459
26.13,0.7221096755957337
26.14,0.7338302007329143
26.150000000000002,0.7312289197477492
26.16,0.6931353454905648
26.17,0.7028409078260169
26.18,0.7005660842686943
26.19,0.7105968562213345
26.2,0.679792695616329
26.21,0.6668781905716543
26.22,0.6356386775735788
26.23,0.6501287677522143
26.240000000000002,0.6124459079234963
26.25,0.5692993005333541
26.26,0.6067291301405461
26.27,0.5781779533809891
26.28,0.5408020856464151
26.29,0.529214587999187
26.3,0.5366064636074797
26.310000000000002,0.5305879617257565
26.32,0.5147419169652774
26.330000000000002,0.5069248779091161
26.34,0.5268254351980288
26.35,0.4997446456284396
26.36,0.4650393817502916
26.37,0.46484009557651396
26.38,0.40068124872722655
26.39,0.4106525628703409
26.400000000000002,0.41761491911122123
26.41,0.34468315998652305
26.42,0.30131087871057677
26.43,0.27515450848847767
26.44,0.23405834298295125
26.45,0.20989688982619867
26.46,0.18935868901152156
26.47,0.1383262900388738
26.48,0.14591687616363283
26.490000000000002,0.14572471959379996
26.5,0.08996031668731724
26.51,0.1358208789142938
26.52,0.11099788265336764
26.53,0.12792415142079794
26.54,0.10263457540787546
26.55,0.15714060595944127
26.560000000000002,0.14107591438101516
26.57,0.2205642381883891
26.580000000000002,0.24543585561240727
26.59,0.30047642560375293
26.6,0.31220967463368554
26.61,0.3722860411814172
26.62,0.4613787519727577
26.63,0.4822715119710981
26.64,0.5687507720947793
26.650000000000002,0.5797000781817823
26.66,0.6782089037172999
26.67,0.6751011976210551
26.68,0.7535112100253429
26.69,0.7870089677844291
26.7,0.7822774022964466
26.71,0.8292547158225382
26.72,0.8332650248414061
26.73,0.8199255112474139
26.740000000000002,0.8079592396431037
26.75,0.7797216773046631
26.76,0.8206445259167429
26.77,0.762737263109323
26.78,0.7829364301478509
26.79,0.7561588629724835
26.8,0.7582830487126531
26.810000000000002,0.7175211585784981
26.82,0.6995788337906201
26.830000000000002,0.708174545981065
26.84,0.6863883593849324
26.85,0.6759455439390917
26.86,0.6723417002159158
26.87,0.6229955438546916
26.88,0.6732479250233945
26.89,0.6708997225628033
26.900000000000002,0.6369339067953544
26.91,0.6584208516470724
26.92,0.6677842704843947
26.93,0.6704340386735191
26.94,0.68523357622956
26.95,0.713110792988966
26.96,0.7067827034090302
26.97,0.6524225902160068
26.98,0.6934885155256183
26.990000000000002,0.7046033744628771
27.0,0.6762881479822382
27.01,0.6829962026139499
27.02,0.6927594633118567
27.03,0.6579623847685184
27.04,0.6269029556725366
27.05,0.6305931233852058
27.060000000000002,0.595821712838875
27.07,0.5788059036391059
27.080000000000002,0.5565872210630202
27.09,0.5868030062731754
27.1,0.5210917167671165
27.11,0.5630969673598322
27.12,0.5297436618940172
27.13,0.4775882250898701
27.14,0.5085422357305323
27.150000000000002,0.44407142847870845
27.16,0.49631100968719283
27.17,0.4920789428681538
27.18,0.44731745196065037
27.19,0.45020900794380564
27.2,0.4760453910382458
27.21,0.4026642382962095
27.22,0.3696502149879909
27.23,0.4037657451707472
27.240000000000002,0.3889749377945532
27.25,0.3170451980542451
27.26,0.3103969743129163
27.27,0.2875293238124927
27.28,0.21011075945858027
27.29,0.18629395364986973
27.3,0.19719966989956925
27.310000000000002,0.1825228391317135
27.32,0.13622245377578843
27.330000000000002,0.08760528371718375
27.34,0.14196832189221445
27.35,0.0814695473356688
27.36,0.08929841032347062
27.37,0.11548543443467266
27.38,0.16134879137321914
27.39,0.17160909332122895
27.400000000000002,0.1948973239728492
27.41,0.23570776982460692
27.42,0.2716528082004757
27.43,0.3333240189104963
27.44,0.3172295408774691
27.45,0.4232560600983334
27.46,0.4918297774382936
27.47,0.5162491206421984
27.48,0.6047376281706144
27.490000000000002,0.6419765369290922
27.5,0.7323292881210934
27.51,0.7690108566868716
27.52,0.7577188017477736
27.53,0.7928677728907935
27.54,0.8157449311328373
27.55,0.8214491139339207
27.560000000000002,0.8435543258202327
27.57,0.8233353820060888
27.580000000000002,0.8106192694948268
27.59,0.8410495968518311
27.6,0.8282507157104162
27.61,0.7801319605193149
27.62,0.800876976090839
27.63,0.74810041469667
27.64,0.7499008263856742
27.650000000000002,0.7456001503110484
27.66,0.7110411606192175
27.67,0.7091004327093141
27.68,0.6769872370308697
27.69,0.676924448655305
27.7,0.6723872239724361
27.71,0.6586618275748837
27.72,0.6724544477686101
27.73,0.6444988821513649
27.740000000000002,0.6728112547568986
27.75,0.6828164207655156
27.76,0.6890723601207429
27.77,0.6946474502405656
27.78,0.7030048276032952
27.79,0.7180748319539061
27.8,0.728013877552673
27.810000000000002,0.6925593704725925
27.82,0.6767314758346737
27.830000000000002,0.6747345664596763
27.84,0.6794418942194417
27.85,0.6727390970406915
27.86,0.6519267726409401
27.87,0.6274331702991748
27.88,0.632926682494206
27.89,0.6334773134958853
27.900000000000002,0.6290186996300767
27.91,0.5896569801893214
27.92,0.5802400902673939
27.93,0.556882388469139
27.94,0.5662790426701249
27.95,0.5380184391267214
27.96,0.5610333537519623
27.97,0.4993402756092691
27.98,0.5231790510459676
27.990000000000002,0.5295079995105255
28.0,0.5175706198147398
28.01,0.5636455837062043
28.02,0.49862941543982975
28.03,0.4538369742805427
28.04,0.4576547997227123
28.05,0.400482623751381
28.060000000000002,0.4167858051579265
28.07,0.37533868142703886
28.080000000000002,0.388015617789162
28.09,0.32642482112327975
28.1,0.30643680480284
28.11,0.26457838215681456
28.12,0.28844147412980664
28.13,0.21378764452105312
28.14,0.2366679345929162
28.150000000000002,0.19158923466775588
28.16,0.16657092045594699
28.17,0.15200273905549497
28.18,0.14687851901937296
28.19,0.09580538429457966
28.2,0.14165477841818672
28.21,0.18328123942630886
28.22,0.18697785674956197
28.23,0.18754167519402473
28.240000000000002,0.2559486978719067
28.25,0.33945183477535235
28.26,0.37805886853518417
28.27,0.40133498485290364
28.28,0.4795704684100171
28.29,0.5064658371661572
28.3,0.5327550461631777
28.310000000000002,0.6052264574810003
28.32,0.7133534641970173
28.330000000000002,0.7199308501223571
28.34,0.763547170427941
28.35,0.799304201176649
28.36,0.8795352201500468
28.37,0.896947589086634
28.38,0.9270463956392457
28.39,0.883352377601264
28.400000000000002,0.8970944121097957
28.41,0.8538737247923397
28.42,0.9139325423293165
28.43,0.8426701906648946
28.44,0.8590666446191708
28.45,0.8124549256469282
28.46,0.8058152841982974
28.47,0.7819754282179494
28.48,0.7696729962416426
28.490000000000002,0.7552865873974208
28.5,0.7413019656078873
28.51,0.7612811151379199
28.52,0.7092696058067994
28.53,0.7337877984407853
28.54,0.753746819117865
28.55,0.7147505737306166
28.560000000000002,0.7123377811415182
28.57,0.7271819124278809
28.580000000000002,0.76389718789357
28.59,0.7470248457841775
28.6,0.7358296362665626
28.61,0.7630926298071861
28.62,0.7303887628633577
28.63,0.7719230776934182
28.64,0.7650225830030495
28.650000000000002,0.7458591605585336
28.66,0.7285618841514786
28.67,0.7198973837915391
28.68,0.7423067916984204
28.69,0.7465422068743727
28.7,0.6916376879725624
28.71,0.7025347952708532
28.72,0.630783909113655
28.73,0.6501885990872517
28.740000000000002,0.6484713069690412
28.75,0.6150561300850329
28.76,0.6016759189193284
28.77,0.5959135791411085
28.78,0.6067000295223097
28.79,0.5858795608294912
28.8,0.5302536023761407
28.810000000000002,0.5238236477914231
28.82,0.5487730122952462
28.830000000000002,0.5630255776558001
28.84,0.47995104852004566
28.85,0.5183069106560702
28.86,0.5034254114483573
28.87,0.5300064521113309
28.88,0.47088312802445337
28.89,0.46641370729743803
28.900000000000002,0.43658040603577375
28.91,0.35860095845578377
28.92,0.395240043650118
28.93,0.3526511631466933
28.94,0.3284582652708713
28.95,0.3749197643031546
28.96,0.2099398075812897
28.97,0.268550463825807
28.98,0.19914578537739122
28.990000000000002,0.19234391881584811
29.0,0.1703140877002961
29.01,0.15334001900698013
29.02,0.14841138144404908
29.03,0.1743409112354328
29.04,0.1459361132181085
29.05,0.21793793045215937
29.060000000000002,0.2199267414361273
29.07,0.23910621837215487
29.080000000000002,0.2960046490318149
29.09,0.38144278295434764
29.1,0.3922549956150815
29.11,0.4666828307198855
29.12,0.49809380068121345
29.13,0.5879481363918684
29.14,0.6415115084429897
29.150000000000002,0.7205082542560433
29.16,0.7239756430758283
29.17,0.7873734224852362
29.18,0.8132239574412099
29.19,0.8726241959580915
29.2,0.8528228596117962
29.21,0.9045035299447682
29.22,0.8950946882404005
29.23,0.9032234471197262
29.240000000000002,0.9058487400767131
29.25,0.9032047058254071
29.26,0.8841173074363526
29.27,0.8772478936674052
29.28,0.8911313414937495
29.29,0.8594199410242855
29.3,0.8379685654643597
29.310000000000002,0.7897195413982476
29.32,0.7628286775835559
29.330000000000002,0.7892491436669347
29.34,0.7747361295800378
29.35,0.7782308247793169
29.36,0.7243505963118236
29.37,0.7285953816309404
29.38,0.6952470867290907
29.39,0.7240883201851176
29.400000000000002,0.7579300631676112
29.41,0.7286915341738613
29.42,0.7580161575235244
29.43,0.743624581336966
29.44,0.7589469471828006
29.45,0.7283036580424963
29.46,0.7570023685531871
29.47,0.6865320736409904
29.48,0.7464231827079658
29.490000000000002,0.7081924863049514
29.5,0.7641585015123689
29.51,0.7443424893792361
29.52,0.7252838984005735
29.53,0.7354527104248588
29.54,0.6650097995894889
29.55,0.7103508491989431
29.560000000000002,0.6762473875609255
29.57,0.634313850396409
29.580000000000002,0.6501673191648555
29.59,0.5852892785156972
29.6,0.5782429630663484
29.61,0.5706892280478205
29.62,0.5609711541460549
29.63,0.538286286092202
29.64,0.5793335049589251
29.650000000000002,0.5356172876211035
29.66,0.5387130359394874
29.67,0.5063482168251684
29.68,0.46525552745639764
29.69,0.4977036169669349
29.7,0.4316326238192657
29.71,0.4538920843236696
29.72,0.4026772485124724
29.73,0.4538360880980794
29.740000000000002,0.40264475772446406
29.75,0.3554653729777132
29.76,0.35099460861661314
29.77,0.271947577698839
29.78,0.2717482283052507
29.79,0.2333287661060802
29.8,0.2059869937402189
29.810000000000002,0.20286649781350982
29.82,0.16881512556998865
29.830000000000002,0.1419023912092074
29.84,0.08703745137643258
29.85,0.09828626107914415
29.86,0.11994290420255603
29.87,0.13514881323258882
29.88,0.12557874246820133
29.89,0.23102894486196848
29.900000000000002,0.2436235137141995
29.91,0.26237077472054404
29.92,0.29552157518854677
29.93,0.3389178722270089
29.94,0.3755469201198946
29.95,0.45425240030510367
29.96,0.5146115330480453
29.97,0.5364921680297684
29.98,0.6257517971348655
29.990000000000002,0.6651943516792971
30.0,0.6717659273858503
30.01,0.7361152876883404
30.02,0.7808057585099211
30.03,0.8606732224788447
30.04,0.8517192748870624
30.05,0.8231771287231308
30.060000000000002,0.8716478430808454
30.07,0.8269199327427232
30.080000000000002,0.8817091639659304
30.09,0.8373332663373534
30.1,0.8326088249732168
30.11,0.8484895869130584
30.12,0.7715945328818207
30.13,0.7503075687877698
30.14,0.7499718626961039
30.150000000000002,0.768851791073988
30.16,0.6951945283728869
30.17,0.6518784581945527
30.18,0.6945055389974776
30.19,0.7089091462527859
30.2,0.7181850888021951
30.21,0.6780319416374864
30.22,0.678938527080024
30.23,0.7159148194349715
30.240000000000002,0.6508149645520094
30.25,0.6880864886403721
30.26,0.7051768947691844
30.27,0.7145939532404347
30.28,0.6955241890819136
30.29,0.7088280994049236
30.3,0.6510579103104214
30.310000000000002,0.6892449196300311
30.32,0.7088966844073483
30.330000000000002,0.6687539044324115
30.34,0.6822289444224171
30.35,0.6789631295282151
30.36,0.6474663707954392
30.37,0.6440466805015713
30.38,0.6026516344772528
30.39,0.6034477359934854
30.400000000000002,0.6056282114524196
30.41,0.5795622672366226
30.42,0.5476439616420887
30.43,0.5516687711121568
30.44,0.5494606463236278
30.45,0.47482388437374234
30.46,0.5357036699244723
30.47,0.49107525870040475
30.48,0.4975588232170947
30.490000000000002,0.5040645996175104
30.5,0.43457271670477204
30.51,0.43678799915599875
30.52,0.43195241683500973
30.53,0.40444882554818784
30.54,0.4425797118387041
30.55,0.3629613837488026
30.560000000000002,0.3460079213406903
30.57,0.33694496273232405
30.580000000000002,0.2768649674318657
30.59,0.26497906292681644
30.6,0.2499096253363945
30.61,0.20379396425651516
30.62,0.17833966336356616
30.63,0.1392455204205811
30.64,0.09040168568668007
30.650000000000002,0.10885801343366393
30.66,0.12293523765832894
30.67,0.0711702963890843
30.68,0.06966375947188873
30.69,0.0811075878464923
30.7,0.04527867950302639
30.71,0.12841752379345558
30.72,0.1183967520577643
30.73,0.1818248284820077
30.740000000000002,0.16654559708737826
30.75,0.26819504865136334
30.76,0.29390734729108037
30.77,0.3420762309529052
30.78,0.3907231841146176
30.79,0.43697424935349327
30.8,0.5266663578619528
30.810000000000002,0.5582783761953678
30.82,0.5634594110928097
30.830000000000002,0.631309747562501
30.84,0.6959496162988301
30.85,0.7448882562887325
30.86,0.7678915464446148
30.87,0.8210710136420941
30.88,0.7670450071815814
30.89,0.8249040466151801
30.900000000000002,0.7848423782232548
30.91,0.8412537495878829
30.92,0.8151559749923023
30.93,0.815675605652941
30.94,0.772413196450538
30.95,0.8042017008681218
30.96,0.7811106050687979
30.970000000000002,0.752841845802669
30.98,0.7195129306751014
30.990000000000002,0.719714410885937
31.0,0.6769793972768324
31.01,0.7010055764203953
31.02,0.7104775504277276
31.03,0.6918427030263432
31.04,0.6484107321407236
31.05,0.6726467932342876
31.060000000000002,0.6370442481810948
31.07,0.6823711081415621
31.080000000000002,0.6838564636644245
31.09,0.6361108906548031
31.1,0.656372158142791
31.11,0.6796103010666522
31.12,0.6812435009893623
31.13,0.6609658501382355
31.14,0.6950814860170068
31.150000000000002,0.6877290840999667
31.16,0.6710469556415514
31.17,0.64945000361946
31.18,0.6790937832829533
31.19,0.6799164147599898
31.2,0.6173914991111868
31.21,0.5991873598105966
31.220000000000002,0.6082008640092526
31.23,0.5730626480180152
31.240000000000002,0.5622783154627681
31.25,0.5669916441193934
31.26,0.4930000396715659
31.27,0.5524999902146094
31.28,0.5121331975594305
31.29,0.48983255414461563
31.3,0.48639604121792673
31.310000000000002,0.4772208899609636
31.32,0.4286564651704444
31.330000000000002,0.49053646299213405
31.34,0.4459288104657293
31.35,0.4417208088790622
31.36,0.438064867950788
31.37,0.37625770344310794
31.38,0.39019631655435044
31.39,0.3511862590473326
31.400000000000002,0.35153821479131203
31.41,0.2574543184676155
31.42,0.2743156645700425
31.43,0.2328152943001527
31.44,0.22546956560750686
31.45,0.1959553039018852
31.46,0.1403186377387654
31.470000000000002,0.11344886524676719
31.48,0.10361345764382245
31.490000000000002,0.06689301313344076
31.5,0.09246273798468801
31.51,0.05773296984927856
31.52,0.0
31.53,0.06399962059584295
31.54,0.06363319948988268
31.55,0.07260676058101062
31.560000000000002,0.11135778466052876
31.57,0.1786707779756121
31.580000000000002,0.24948295926742922
31.59,0.27536786821955234
31.6,0.30777211716713315
31.61,0.387980310539868
31.62,0.4253608243537255
31.63,0.47841986472847625
31.64,0.5253780561147683
31.650000000000002,0.56683901631484
31.66,0.6488444066535289
31.67,0.7077656679723556
31.68,0.7429503259581564
31.69,0.7703510500095577
31.7,0.7862329462935373
31.71,0.8421292401194664
31.720000000000002,0.8126519924945372
31.73,0.8671591202177015
31.740000000000002,0.8282541125349352
31.75,0.8296580687078684
31.76,0.8047513203883098
31.77,0.8141061713880431
31.78,0.8323961844292351
31.79,0.8054626240824241
31.8,0.7987708881883736
31.810000000000002,0.7717238670536146
31.82,0.7194880884455342
31.830000000000002,0.7231912629995586
31.84,0.7016879337771588
31.85,0.7405877398936016
31.86,0.677713865863561
31.87,0.7217275013536895
31.88,0.7211339326718974
31.89,0.7438626525720627
31.900000000000002,0.6966829131843078
31.91,0.7264347966626503
31.92,0.7667967834861698
31.93,0.7062939174487654
31.94,0.6897712190827677
31.95,0.684899947059295
31.96,0.7445513775882111
31.970000000000002,0.6851369697422499
31.98,0.7160216866315355
31.990000000000002,0.7286974646151665
32.0,0.7150683456026143
32.01,0.710336826496531
32.02,0.693668127556131
32.03,0.70381978584352
32.04,0.6386677672334545
32.05,0.6293101362895741
32.06,0.6113106248505926
32.07,0.6317498533430544
32.08,0.618128050693869
32.09,0.5935677128855281
32.1,0.596592622222286
32.11,0.5308608448758128
32.12,0.5834770033391334
32.13,0.5694545256655279
32.14,0.5413990599899371
32.15,0.5547997398832749
32.160000000000004,0.4667491380229874
32.17,0.4809558566263368
32.18,0.4636023609764621
32.19,0.4821330917497653
32.2,0.4257755380265417
32.21,0.4477574978898616
32.22,0.4402895947172974
32.230000000000004,0.40126186599811403
32.24,0.3658464578791
32.25,0.30904268535132207
32.26,0.2826164142949982
32.27,0.29948567427915535
32.28,0.2585024211395926
32.29,0.21062766119624415
32.3,0.17463259787550992
32.31,0.11394569567125909
32.32,0.11511118697691958
32.33,0.16704404372364062
32.34,0.0857055901629449
32.35,0.11618007645719003
32.36,0.13921974282714156
32.37,0.10042707618581007
32.38,0.15285676873340806
32.39,0.1974315557227985
32.4,0.21140248896959193
32.410000000000004,0.3172623447883793
32.42,0.26220282216635626
32.43,0.37567762192167387
32.44,0.4034149549590071
32.45,0.48242854355747933
32.46,0.5334980928498638
32.47,0.5649440967265379
32.480000000000004,0.6425989658859959
32.49,0.6482487623597575
32.5,0.7520461751888956
32.51,0.7880911457128114
32.52,0.8325508314292538
32.53,0.8721181680567918
32.54,0.8797027875870084
32.55,0.890921396730544
32.56,0.8771117982722437
32.57,0.8839825925608849
32.58,0.9241706436567858
32.59,0.922277236090152
32.6,0.8730345790003748
32.61,0.8649933875166972
32.62,0.827184259256384
32.63,0.856742923571144
32.64,0.8280685134213965
32.65,0.8405053856308213
32.660000000000004,0.7622240225671755
32.67,0.7609864220655651
32.68,0.7647785894409871
32.69,0.7669530415198367
32.7,0.7431074945934322
32.71,0.7264998354809401
32.72,0.766575148966699
32.730000000000004,0.7653386098665685
32.74,0.7321149993683594
32.75,0.787754309625805
32.76,0.7880840839696248
32.77,0.7687088815175074
32.78,0.7703654822189134
32.79,0.782368695374188
32.8,0.7497744659795027
32.81,0.7669637823490674
32.82,0.7124478192027037
32.83,0.7730415385390201
32.84,0.7080903984062277
32.85,0.7651766573595452
32.86,0.7100948141471657
32.87,0.6977103153522161
32.88,0.6723958563157951
32.89,0.6636958183446882
32.9,0.6858201439426455
32.910000000000004,0.581766054112192
32.92,0.6513732734021465
32.93,0.615817028180068
32.94,0.5675897372565996
32.95,0.5581450124596488
32.96,0.6086114527929293
32.97,0.5384947182032108
32.980000000000004,0.5230485749460136
32.99,0.5637580906948833
33.0,0.5341593721578665
33.01,0.49266468720889195
33.02,0.5044050182689185
33.03,0.46011634947249813
33.04,0.48949875803909276
33.05,0.4675544850367167
33.06,0.43202882830632033
33.07,0.40217770776837536
33.08,0.40559012877584316
33.09,0.3360514140035269
33.1,0.2785407140112686
33.11,0.28418324504116027
33.12,0.2905691118985551
33.13,0.1917498451766339
33.14,0.18023734387081708
33.15,0.17524244066681957
33.160000000000004,0.14682180557610708
33.17,0.11372270658570055
33.18,0.1554543936197366
33.19,0.183842281781317
33.2,0.14483826861333365
33.21,0.13663711117847904
33.22,0.1463808594512104
33.230000000000004,0.21879503753689974
33.24,0.2763841132915154
33.25,0.30679401449592086
33.26,0.34570087128070426
33.27,0.386075849405249
33.28,0.430987687498621
33.29,0.5319567311235835
33.3,0.5911187559318547
33.31,0.591511411667201
33.32,0.7152158420305392
33.33,0.7412661936741566
33.34,0.8037510691028228
33.35,0.7798797818584714
33.36,0.8107663017581305
33.37,0.8627311956899998
33.38,0.8949467445686485
33.39,0.9347619474853535
33.4,0.9143203487891691
33.410000000000004,0.8911426803094562
33.42,0.8665139454959745
33.43,0.9061520486527864
33.44,0.8421279591377538
33.45,0.8837969885856285
33.46,0.8226256859097881
33.47,0.8466110558478273
33.480000000000004,0.8084046821096117
33.49,0.7737698024248277
33.5,0.7509411968677456
33.51,0.7432353917589627
33.52,0.7515858625923778
33.53,0.7374841922365615
33.54,0.7188789113637285
33.55,0.7275003447466235
33.56,0.7340132489185114
33.57,0.6867769616949216
33.58,0.7485868858141128
33.59,0.7199657484200196
33.6,0.7195514324265028
33.61,0.7101223147008893
33.62,0.7089228674441727
33.63,0.7181763273522627
33.64,0.7299710087771234
33.65,0.7848864814885613
33.660000000000004,0.7214846027334041
33.67,0.7275403412523485
33.68,0.7206401654953631
33.69,0.7008289214895445
33.7,0.6809543734020995
33.71,0.6395672780023505
33.72,0.6824953349622307
33.730000000000004,0.6736688076819668
33.74,0.578397497021582
33.75,0.5772793659981555
33.76,0.5789437885834388
33.77,0.5493746845176737
33.78,0.5694068945459415
33.79,0.5293529109870506
33.8,0.5830539661591265
33.81,0.5499078075065568
33.82,0.5166507168714254
33.83,0.5233220394013846
33.84,0.5124430829614377
33.85,0.46069697512022945
33.86,0.439054873391856
33.87,0.44106075728107713
33.88,0.43812319982288295
33.89,0.3986822783382911
33.9,0.3343528539373403
33.910000000000004,0.32391407199202
33.92,0.3105943899876332
33.93,0.2795140512942915
33.94,0.2940947859313
33.95,0.18706106276899234
33.96,0.19967158511847619
33.97,0.19409796246460911
33.980000000000004,0.18733109880123186
33.99,0.10696094422930012
34.0,0.11246211549722794
34.01,0.10571428337519251
34.02,0.09563886484833867
34.03,0.09474690099373553
34.04,0.12021411167136908
34.05,0.07439852037911715
34.06,0.17548704394938267
34.07,0.19860234306804248
34.08,0.23273266973240805
34.09,0.3313222142254703
34.1,0.32169578865621495
34.11,0.38264980531822107
34.12,0.49319726855891743
34.13,0.48640829462713114
34.14,0.548572071508153
34.15,0.6110484729950981
34.160000000000004,0.6830471996640991
34.17,0.7137481127392564
34.18,0.7192304776550786
34.19,0.7693493868833595
34.2,0.7938377817040086
34.21,0.8249925942948891
34.22,0.848610102484905
34.230000000000004,0.8540800017034803
34.24,0.8041269721900223
34.25,0.8622694092598467
34.26,0.8335152408848536
34.27,0.844976402362975
34.28,0.8071294608694563
34.29,0.803759360799528
34.300000000000004,0.7707211820420937
34.31,0.7722247666839727
34.32,0.7365241003353471
34.33,0.7073026958052971
34.34,0.7479020247260557
34.35,0.7065729853070886
34.36,0.692178296926947
34.37,0.6459829578802492
34.38,0.6438258257085264
34.39,0.6798226356680067
34.4,0.678606184489192
34.410000000000004,0.6647712549615598
34.42,0.6856689620222941
34.43,0.7221329140221138
34.44,0.7051608595192433
34.45,0.6657214165958416
34.46,0.6892422243746232
34.47,0.6718976571959261
34.480000000000004,0.6773529542667397
34.49,0.6704715253389802
34.5,0.6604201176144082
34.51,0.6321272639915972
34.52,0.644899393667219
34.53,0.6209486200804695
34.54,0.5522213147373014
34.550000000000004,0.6485719322934859
34.56,0.6105969827917679
34.57,0.5615030008936671
34.58,0.5548824971917385
34.59,0.5133093163701785
34.6,0.5642032277507866
34.61,0.5560099202960667
34.62,0.5049808736309607
34.63,0.5135197523008379
34.64,0.48387136069924147
34.65,0.43936348168523404
34.660000000000004,0.44946974383095056
34.67,0.45017011838530185
34.68,0.4240951580584455
34.69,0.4148268212342841
34.7,0.40099349710497945
34.71,0.3821338673185081
34.72,0.36349438918089993
34.730000000000004,0.3142155088837983
34.74,0.29540084469891903
34.75,0.25400596844574874
34.76,0.274901630611553
34.77,0.1744111833556214
34.78,0.21691173450221005
34.79,0.1920745033276412
34.800000000000004,0.1258305982785127
34.81,0.0487418070696524
34.82,0.07809282327457842
34.83,0.06859081764583073
34.84,0.036937579814005535
34.85,0.04443364723720532
34.86,0.09409038987159146
34.87,0.08568505067994642
34.88,0.06864414818529346
34.89,0.07983976760196093
34.9,0.14205892969953898
34.910000000000004,0.18476945726264743
34.92,0.24665837069563742
34.93,0.273983119143974
34.94,0.3516659220591916
34.95,0.44002164779088376
34.96,0.47181814514915876
34.97,0.5087733958221602
34.980000000000004,0.5601737320834966
34.99,0.6074454608585247
35.0,0.6888883229518282
35.01,0.6895269645028884
35.02,0.7399653327952079
35.03,0.7687183514137463
35.04,0.7779366578112126
35.050000000000004,0.7730360830571638
35.06,0.8192622149574081
35.07,0.8123112737201558
35.08,0.8210294964173894
35.09,0.7889461111659172
35.1,0.8158311408644076
35.11,0.7529662280069747
35.12,0.7939199224694209
35.13,0.6976599321235041
35.14,0.728752889058018
35.15,0.7125460068378722
35.160000000000004,0.6684823381538603
35.17,0.6828689736561853
35.18,0.6916990329874881
35.19,0.6052800600715198
35.2,0.6619054997533395
35.21,0.5923802922973024
35.22,0.6272694435297881
35.230000000000004,0.6881941503940041
35.24,0.6421872751183388
35.25,0.6335122433416092
35.26,0.6603957564240798
35.27,0.7159498366371824
35.28,0.6314973416406433
35.29,0.651090713621527
35.300000000000004,0.7086843508557678
35.31,0.7147830041440645
35.32,0.666244343265606
35.33,0.634013845070909
35.34,0.7003949425017862
35.35,0.6783096834143596
35.36,0.6452460530398887
35.37,0.5979488321397404
35.38,0.600676495061027
35.39,0.583308969408309
35.4,0.5795791179929449
35.410000000000004,0.5904555985913608
35.42,0.5639085535191127
35.43,0.5070508266256057
35.44,0.5506603422340514
35.45,0.5159458974093446
35.46,0.5144768673412764
35.47,0.5227301724633265
35.480000000000004,0.4554990498866028
35.49,0.4704547891367657
35.5,0.44930396680274926
35.51,0.4148003126620817
35.52,0.445213839565413
35.53,0.4792404818029933
35.54,0.3639822836292982
35.550000000000004,0.3850634545806835
35.56,0.3779525063736393
35.57,0.34151103393734
35.58,0.30920189089965544
35.59,0.2537207699061986
35.6,0.2583975103010094
35.61,0.20585854035371223
35.62,0.14385527459662906
35.63,0.19200995318628
35.64,0.16109064189827604
35.65,0.11866984485002449
35.660000000000004,0.1053254888202375
35.67,0.11260051752439064
35.68,0.08801459373424993
35.69,0.10491935875102122
35.7,0.08683999607053604
35.71,0.13978403828804306
35.72,0.14169000870553417
35.730000000000004,0.17040268999425098
35.74,0.17573814556193967
35.75,0.25520581183451646
35.76,0.2793695877138786
35.77,0.3370141739040076
35.78,0.388900087459565
35.79,0.4403566753975146
35.800000000000004,0.5692548472559302
35.81,0.6067606211877224
35.82,0.6725782769730594
35.83,0.6501867094695033
35.84,0.7227723458694714
35.85,0.72949572119903
35.86,0.7739631397333149
35.87,0.7930698212487282
35.88,0.858874709611335
35.89,0.8323136877301635
35.9,0.869210563275788
35.910000000000004,0.8567473343655696
35.92,0.8879681225974224
35.93,0.7913571129175938
35.94,0.8385855210912029
35.95,0.8193384431578926
35.96,0.7536924755468224
35.97,0.7803479062676472
35.980000000000004,0.7479610637208726
35.99,0.719515222371119
36.0,0.6924704393023341
36.01,0.6838277543889707
36.02,0.7381084069092761
36.03,0.6866779078746051
36.04,0.7018989673832039
36.050000000000004,0.6665920281116177
36.06,0.6691623492206724
36.07,0.7151121469420717
36.08,0.6653129309802397
36.09,0.6918463430523172
36.1,0.7072517672657145
36.11,0.713491171555902
36.12,0.7101318825497644
36.13,0.7245488810096432
36.14,0.7306456316398269
36.15,0.7287412572078212
36.160000000000004,0.6847970291439232
36.17,0.6932332910877987
36.18,0.7171512077434795
36.19,0.6992009468341138
36.2,0.635504612849337
36.21,0.6608540593478707
36.22,0.5942675981587019
36.230000000000004,0.6257838769832406
36.24,0.6536667518092688
36.25,0.5762710794797951
36.26,0.5664541906757473
36.27,0.59109490877805
36.28,0.5286658671124213
36.29,0.5396472823385208
36.300000000000004,0.5584742385809572
36.31,0.5221562452860354
36.32,0.522485669005134
36.33,0.5353873178803814
36.34,0.5178792029609317
36.35,0.5026470067354897
36.36,0.47529864690199203
36.37,0.4753094663806725
36.38,0.4456575386280302
36.39,0.43760973703452655
36.4,0.3923303762181351
36.410000000000004,0.3732991065450618
36.42,0.32700358116753747
36.43,0.3190437794973165
36.44,0.2713762360904764
36.45,0.23455405903182405
36.46,0.23666088564773288
36.47,0.20895162505710455
36.480000000000004,0.1983578916226627
36.49,0.1517904441401807
36.5,0.1567385861538312
36.51,0.1520539183668096
36.52,0.14852739868645645
36.53,0.1260190543730632
36.54,0.16170244323087604
36.550000000000004,0.18785097425094396
36.56,0.20851220894625172
36.57,0.19696576352732542
36.58,0.2895549734683931
36.59,0.38310214169950285
36.6,0.3766304939201945
36.61,0.4228857232054388
36.62,0.5039507834363214
36.63,0.5590878460186225
36.64,0.6343407197371497
36.65,0.6320378497173771
36.660000000000004,0.7261652550658539
36.67,0.7674937577717037
36.68,0.7898203843638923
36.69,0.8331684214482469
36.7,0.8744741418081724
36.71,0.8896979425288809
36.72,0.856122817996007
36.730000000000004,0.9056598092232362
36.74,0.8849011306519255
36.75,0.8818273606984037
36.76,0.8711490778764697
36.77,0.8518820883262449
36.78,0.8653974423916531
36.79,0.8184226357771266
36.800000000000004,0.7763882213660582
36.81,0.7745531142380937
36.82,0.7705434791024632
36.83,0.7792877217830353
36.84,0.7527029316503736
36.85,0.7102609469303846
36.86,0.7787516856942306
36.87,0.7248558207403654
36.88,0.7464975801179363
36.89,0.7154948478751192
36.9,0.7339610906866362
36.910000000000004,0.7451585513780542
36.92,0.7586529543262416
36.93,0.7600106544186294
36.94,0.7602413721466882
36.95,0.7367465521487602
36.96,0.7326398730828184
36.97,0.752757232337384
36.980000000000004,0.7638328541028271
36.99,0.7330097217366399
37.0,0.7550204835758024
37.01,0.7546084922622865
37.02,0.6901829793184527
37.03,0.6794468149558639
37.04,0.6815142009618601
37.050000000000004,0.6773006114003719
37.06,0.6439806290335253
37.07,0.6719080569570307
37.08,0.6371003776052241
37.09,0.6153226845039933
37.1,0.5698861887566333
37.11,0.5614068541777983
37.12,0.587134735049556
37.13,0.5231529595429428
37.14,0.5849380053794989
37.15,0.5494426168564096
37.160000000000004,0.6166308761412214
37.17,0.5851478552810498
37.18,0.5172444476707628
37.19,0.5053392595651566
37.2,0.5143769874504202
37.21,0.5120304293011158
37.22,0.4157430447441253
37.230000000000004,0.3888006973248641
37.24,0.38897352025549503
37.25,0.3879138310180645
37.26,0.3561209027359425
37.27,0.33822583661352607
37.28,0.2561012469290823
37.29,0.2007693696358301
37.300000000000004,0.2439896249963181
37.31,0.18047197143586138
37.32,0.1320371260083158
37.33,0.16411947109690847
37.34,0.16781883860902774
37.35,0.1428088751647038
37.36,0.13798079766202728
37.37,0.15493498176119577
37.38,0.1680062757570957
37.39,0.1712925027925055
37.4,0.21802457736826142
37.410000000000004,0.28485646169925666
37.42,0.3249936799683353
37.43,0.37080818967764256
37.44,0.39730297504514817
37.45,0.47050515713687535
37.46,0.4811155552950947
37.47,0.589191247168497
37.480000000000004,0.6703413512647949
37.49,0.6545606309725399
37.5,0.7198491203464845
37.51,0.7803645969947554
37.52,0.8349464609140721
37.53,0.8236953508552054
37.54,0.8383807698863368
37.550000000000004,0.8228454132779985
37.56,0.8761146000829801
37.57,0.9201084724630453
37.58,0.8749870741855726
37.59,0.8581042949503648
37.6,0.851882094505083
37.61,0.8275351614046772
37.62,0.7908144629709236
37.63,0.8082935607739729
37.64,0.7755895232038377
37.65,0.7527135389461448
37.660000000000004,0.7139160621071359
37.67,0.7512345113232946
37.68,0.7254910129635147
37.69,0.6896233362368315
37.7,0.719210660470852
37.71,0.6827147351576605
37.72,0.676082638818589
37.730000000000004,0.6783910718179752
37.74,0.6588740962120181
37.75,0.7136068119155906
37.76,0.66609702241472
37.77,0.6837267874104286
37.78,0.6677180499841765
37.79,0.7142266598373108
37.800000000000004,0.7125832353292163
37.81,0.706290183868183
37.82,0.6855614972967317
37.83,0.6757635323285721
37.84,0.7036137917372735
37.85,0.6697213497959486
37.86,0.6766243217369701
37.87,0.635635854503311
37.88,0.6449645588887529
37.89,0.6551719505551888
37.9,0.6239421188273909
37.910000000000004,0.5867714453011038
37.92,0.5879152691310229
37.93,0.5636306020104448
37.94,0.5571585356500358
37.95,0.5385118327012159
37.96,0.5318194875430039
37.97,0.5305148840758405
37.980000000000004,0.49372099948028975
37.99,0.48335082325537204
38.0,0.4643617499897734
38.01,0.4477909557305772
38.02,0.4429543002030471
38.03,0.458440767039305
38.04,0.41675369333478973
38.050000000000004,0.42790320447353747
38.06,0.39388572408522765
38.07,0.32294988637379685
38.08,0.3540738620556064
38.09,0.3277475985701464
38.1,0.25603080120409394
38.11,0.2564803804813443
38.12,0.19674564678210116
38.13,0.1887916641956099
38.14,0.13112930729051872
38.15,0.0958364459481358
38.160000000000004,0.10885256938927641
38.17,0.10143370330779793
38.18,0.08832445734694888
38.19,0.07062906539440712
38.2,0.09575106098506278
38.21,0.12589719074053768
38.22,0.14145150426054207
38.230000000000004,0.1765147075249631
38.24,0.19399035570316855
38.25,0.27822217336028543
38.26,0.2730101000995516
38.27,0.36213556947608405
38.28,0.4320050366844819
38.29,0.4716508302920249
38.300000000000004,0.5115330369670443
38.31,0.557941682657042
38.32,0.6441242329923362
38.33,0.6355495801510098
38.34,0.6875743536318877
38.35,0.7364130381709314
38.36,0.8027284369896037
38.37,0.805989593592088
38.38,0.7912618574081924
38.39,0.8149587259229627
38.4,0.810549152051505
38.410000000000004,0.8050075845858002
38.42,0.8346233587536261
38.43,0.7689853292579705
38.44,0.8203747539258609
38.45,0.78481288518355
38.46,0.7716639520567647
38.47,0.7174362217873314
38.480000000000004,0.7060802004586538
38.49,0.6602844774142241
38.5,0.6660810833635484
38.51,0.6769734253651176
38.52,0.6858781077332351
38.53,0.6254564825909891
38.54,0.6387987734585813
38.550000000000004,0.6428335749844352
38.56,0.6161575991022205
38.57,0.6640167596433285
38.58,0.6384885463499068
38.59,0.6549904029795244
38.6,0.6536126936068797
38.61,0.6496438402260437
38.62,0.6696267935415737
38.63,0.6655385606078807
38.64,0.6605814019551157
38.65,0.6488651825681638
38.660000000000004,0.6665184204621254
38.67,0.6883899298920321
38.68,0.6440023508447791
38.69,0.651298386926462
38.7,0.5840921925905561
38.71,0.6046310391484092
38.72,0.5614361616000054
38.730000000000004,0.5378863677254576
38.74,0.5398178899067247
38.75,0.5692807479277524
38.76,0.5505897334266864
38.77,0.5223838978925417
38.78,0.47106243895714367
38.79,0.49078578249753285
38.800000000000004,0.49225010422444
38.81,0.4799619284761787
38.82,0.4249005084831033
38.83,0.4363252272640168
38.84,0.44385022262193596
38.85,0.4447767195772749
38.86,0.3686187166113143
38.87,0.3976502755527614
38.88,0.3851729565815171
38.89,0.37911677583314635
38.9,0.3510189506686723
38.910000000000004,0.32161886581365945
38.92,0.2615821665926435
38.93,0.2063546178705703
38.94,0.20961984974227557
38.95,0.2103823166753253
38.96,0.1897053671861221
38.97,0.14699931523909687
38.980000000000004,0.11661007392922747
38.99,0.09573353963809604
39.0,0.06013607673326009
39.01,0.06135674386881544
39.02,0.10034771982418159
39.03,0.04720012681824469
39.04,0.1182099797613966
39.050000000000004,0.09553697023396268
39.06,0.16113486215924147
39.07,0.1349763206672532
39.08,0.221667246462364
39.09,0.2390018663880619
39.1,0.2751681423574138
39.11,0.3665381094415845
39.12,0.4406246022043915
39.13,0.4553898871730414
39.14,0.49615522347325797
39.15,0.5809932787392471
39.160000000000004,0.6305603102675532
39.17,0.6896359873348141
39.18,0.7377991152265736
39.19,0.7478577044588134
39.2,0.8171019640657075
39.21,0.7994511747692233
39.22,0.7988418759382786
39.230000000000004,0.775998731550703
39.24,0.8060410252391704
39.25,0.7986526225994203
39.26,0.8176681938922555
39.27,0.7926867238880402
39.28,0.739400527210899
39.29,0.7521431691955984
39.300000000000004,0.745203983707857
39.31,0.7467881561725545
39.32,0.7159027313011124
39.33,0.6985630290331163
39.34,0.6707414800121574
39.35,0.6689076879140998
39.36,0.682012647405732
39.37,0.6203469570559338
39.38,0.6417397066189581
39.39,0.6337154282200549
39.4,0.6630167146654086
39.410000000000004,0.686786037821115
39.42,0.6507939118373256
39.43,0.6155637239231514
39.44,0.6647634619312105
39.45,0.6980914871240613
39.46,0.6914245896982899
39.47,0.6887782012425218
39.480000000000004,0.670409862410678
39.49,0.6431583339933615
39.5,0.6765961002780061
39.51,0.6369984427857497
39.52,0.6940061019832893
39.53,0.6450313709473066
39.54,0.605352798849645
39.550000000000004,0.5902457496343052
39.56,0.5872687532072921
39.57,0.569452873203667
39.58,0.5860310952939366
39.59,0.5518200106249933
39.6,0.5188266877491376
39.61,0.5666474665089096
39.62,0.5147511010677117
39.63,0.5213299979294244
39.64,0.48107883731982365
39.65,0.4938463103474889
39.660000000000004,0.48316108801598734
39.67,0.4231690438122645
39.68,0.4995156062048384
39.69,0.46969113303919
39.7,0.41598748266752833
39.71,0.38200498274705086
39.72,0.39402388224401913
39.730000000000004,0.3648825091853873
39.74,0.3452702043589527
39.75,0.31381829275797524
39.76,0.29160287841380556
39.77,0.2826311467266141
39.78,0.23255468491345438
39.79,0.1666988543184858
39.800000000000004,0.1936002824419813
39.81,0.17531869976651188
39.82,0.1888328963611083
39.83,0.07683695863641293
39.84,0.09793034207223328
39.85,0.042415146128588634
39.86,0.10594518447019409
39.87,0.09278286510353854
39.88,0.1678764891474135
39.89,0.13397153872040943
39.9,0.14748085308367084
39.910000000000004,0.21565874203760382
39.92,0.22819995373957933
39.93,0.3408444133748921
39.94,0.33201294062950776
39.95,0.43607594850705816
39.96,0.44624147177753815
39.97,0.5429288358147678
39.980000000000004,0.6422981232050462
39.99,0.6652204983408644
40.0,0.6850745976618325
40.01,0.7459408178381997
40.02,0.7830343935426761
40.03,0.8226288647422296
40.04,0.8035781564015925
40.050000000000004,0.8632451200131834
40.06,0.7976649285981078
40.07,0.8469236956310445
40.08,0.8469623709456188
40.09,0.8642691448765711
40.1,0.8386158429454225
40.11,0.7916369094140033
40.12,0.7844897023172938
40.13,0.79371454713963
40.14,0.7701107147427241
40.15,0.7424757188064339
40.160000000000004,0.7300364177475748
40.17,0.7441854907493042
40.18,0.7070722316908168
40.19,0.7098612379888555
40.2,0.7567353868006547
40.21,0.6743591123429019
40.22,0.665737907930796
40.230000000000004,0.7281294908357299
40.24,0.6995157368922323
40.25,0.7127856131104362
40.26,0.7076466463177582
40.27,0.7242388522513882
40.28,0.7699425572430435
40.29,0.7542540385216631
40.300000000000004,0.7559516629463608
40.31,0.702716328116456
40.32,0.7044856439303379
40.33,0.6598568357829417
40.34,0.6968078486281348
40.35,0.725796257762325
40.36,0.7033510382575207
40.37,0.6728685082329828
40.38,0.6626617799020076
40.39,0.6325108273881735
40.4,0.637544233422078
40.410000000000004,0.6354591937764931
40.42,0.5676966686454565
40.43,0.59771602363626
40.44,0.5997889195488038
40.45,0.5581606767671475
40.46,0.5728851070375388
40.47,0.6106701646046713
40.480000000000004,0.535174240127644
40.49,0.5365006746765871
40.5,0.5004103472560271
40.51,0.5093944019209823
40.52,0.5023169673788641
40.53,0.48093640963458767
40.54,0.43581523395774263
40.550000000000004,0.4431925889675195
40.56,0.4486591384579998
40.57,0.40048552770443635
40.58,0.38455882854215934
40.59,0.32829891527624255
40.6,0.32023232163836046
40.61,0.27898089512833846
40.62,0.22118382096365466
40.63,0.22132172306080544
40.64,0.16590881305642605
40.65,0.15179883965510182
40.660000000000004,0.15282157697363358
40.67,0.1433537554728433
40.68,0.10435453755139885
40.69,0.1565102993552646
40.7,0.1547076336273934
40.71,0.1426817449921108
40.72,0.1483237715729722
40.730000000000004,0.21151765483217091
40.74,0.24335277614776837
40.75,0.30064395642162056
40.76,0.33967260028217877
40.77,0.35629236625175303
40.78,0.44914146954623807
40.79,0.508619514263506
40.800000000000004,0.5872778890616448
40.81,0.6132049367100042
40.82,0.7199214524522379
40.83,0.688053334830746
40.84,0.8047434289322569
40.85,0.8082395863533703
40.86,0.8642899030342063
40.87,0.871444839952257
40.88,0.9130948631991151
40.89,0.8895715927758148
40.9,0.8779613445166141
40.910000000000004,0.9332903946374657
40.92,0.8920814797063542
40.93,0.8887612048448535
40.94,0.8974617800691761
40.95,0.8299657231582981
40.96,0.8490663969578803
40.97,0.8045141182185671
40.980000000000004,0.797677682658556
40.99,0.7865660246716043
41.0,0.7374390893617309
41.01,0.7425310454199158
41.02,0.7821370584796205
41.03,0.7660612602261553
41.04,0.7417946094032918
41.050000000000004,0.7482714656666496
41.06,0.7377862631277349
41.07,0.7781774174980499
41.08,0.7471872099508132
41.09,0.7613730612020326
41.1,0.7861263453368845
41.11,0.746005539850417
41.12,0.8005175592737876
41.13,0.730851850893753
41.14,0.7999417412291602
41.15,0.7502817867271218
41.160000000000004,0.7463021043775914
41.17,0.6999229151613449
41.18,0.7209204570095018
41.19,0.694532313958765
41.2,0.6896230050609767
41.21,0.6845448096066291
41.22,0.6929728053511108
41.230000000000004,0.659649379507659
41.24,0.6457536084617892
41.25,0.598548256831021
41.26,0.5886536251396634
41.27,0.6352970563855497
41.28,0.5653660495278127
41.29,0.6073716253703967
41.300000000000004,0.5532905195113501
41.31,0.5479115859092046
41.32,0.5610299318753663
41.33,0.554101735459908
41.34,0.5104670239711301
41.35,0.49030232835639426
41.36,0.4820111329818075
41.37,0.4728877098328987
41.38,0.4649050235765014
41.39,0.42188983696063975
41.4,0.410242073575389
41.410000000000004,0.4054570007536202
41.42,0.3474779325706712
41.43,0.3149841464176418
41.44,0.24222514579427795
41.45,0.1859757792931569
41.46,0.22414078288808828
41.47,0.1856332713907602
41.480000000000004,0.15190505171091945
41.49,0.14913049130262906
41.5,0.1277531392556291
41.51,0.14622039870269263
41.52,0.12130273623670984
41.53,0.10848822206941869
41.54,0.16130839489774484
41.550000000000004,0.1554626177726728
41.56,0.2011261457880148
41.57,0.21444391694274723
41.58,0.2528748450390134
41.59,0.31719273188933256
41.6,0.36769893599642206
41.61,0.43344229950905017
41.62,0.4735263722710296
41.63,0.4954832731507398
41.64,0.5833827018666617
41.65,0.6648878030119995
41.660000000000004,0.6904830493606715
41.67,0.7370909633372922
41.68,0.8046976214516585
41.69,0.7998763720496052
41.7,0.8078327920611936
41.71,0.8587080984062487
41.72,0.8641939136371077
41.730000000000004,0.8594687282023431
41.74,0.8773199570525292
41.75,0.8869473164858654
41.76,0.8656663276525723
41.77,0.8591873896730008
41.78,0.8769427215839264
41.79,0.8105416663938297
41.800000000000004,0.8062039060351303
41.81,0.770462071588097
41.82,0.7460527152747805
41.83,0.7369871104665895
41.84,0.7267684416554352
41.85,0.735726888942034
41.86,0.7734512531504797
41.87,0.6999569058755316
41.88,0.7048703603054398
41.89,0.7131845448211943
41.9,0.7255770853688241
41.910000000000004,0.7257754732154703
41.92,0.7524883479027777
41.93,0.6724168213570554
41.94,0.6761901219999329
41.95,0.7204560115269579
41.96,0.7562859123950535
41.97,0.694074167226305
41.980000000000004,0.657091770947723
41.99,0.7309220393711316
42.0,0.7143065078263995
42.01,0.6727940442800143
42.02,0.6617800305087055
42.03,0.6471780725043029
42.04,0.6554098239977204
42.050000000000004,0.6219459478375824
42.06,0.6300846869376509
42.07,0.5375944937655984
42.08,0.5661589923797203
42.09,0.5443819311265142
42.1,0.5492341575676719
42.11,0.5291307256443085
42.12,0.5464478155603689
42.13,0.4744955353425649
42.14,0.5058937377012905
42.15,0.5060162935924186
42.160000000000004,0.5235243668594837
42.17,0.45823237232118846
42.18,0.46257574524751427
42.19,0.3990369386415714
42.2,0.36814133313439484
42.21,0.4211288748305559
42.22,0.3794525203563078
42.230000000000004,0.38114707081536037
42.24,0.29627035461560924
42.25,0.3096414748890634
42.26,0.30926990512913505
42.27,0.24501853598750953
42.28,0.21024734561255404
42.29,0.17362629150633882
42.300000000000004,0.10941420228609396
42.31,0.14983299665265262
42.32,0.08399841594805803
42.33,0.09271761351553773
42.34,0.03562481212586643
42.35,0.04050725769683186
42.36,0.10297176585056204
42.37,0.07392766553579283
42.38,0.13343338216211487
42.39,0.1254404190243638
42.4,0.11947107191065025
42.410000000000004,0.22155466577310423
42.42,0.23436747685262566
42.43,0.31439931175940017
42.44,0.3537314950312704
42.45,0.37510453940656546
42.46,0.471166935945065
42.47,0.5739644487740299
42.480000000000004,0.5905851662919892
42.49,0.6299588861775578
42.5,0.7029005463041331
42.51,0.7254375713660728
42.52,0.7613187330470577
42.53,0.7612288226582817
42.54,0.8134260118270872
42.550000000000004,0.8468405836027654
42.56,0.8132243251115274
42.57,0.8664630699724242
42.58,0.8288638911267613
42.59,0.802628188810664
42.6,0.832907181782787
42.61,0.7887672183912228
42.62,0.7952721986831225
42.63,0.7535884214892572
42.64,0.7409046385697539
42.65,0.7363909459706799
42.660000000000004,0.7164727368089353
42.67,0.6517728299714495
42.68,0.66092924513582
42.69,0.6993951310207962
42.7,0.6704830158276919
42.71,0.6593144041436407
42.72,0.6404736334650319
42.730000000000004,0.648623908320832
42.74,0.6305838847522766
42.75,0.6778279093675572
42.76,0.6706675155345915
42.77,0.6659114847335423
42.78,0.6886423586313838
42.79,0.6992918140017942
42.800000000000004,0.7372335323084065
42.81,0.6526676156440344
42.82,0.7072557615785383
42.83,0.6950345360882191
42.84,0.6452473119608071
42.85,0.6550958737376902
42.86,0.6261976525628458
42.87,0.625410187453982
42.88,0.639101482346144
42.89,0.6021716978628058
42.9,0.5834518284715157
42.910000000000004,0.5461527005842461
42.92,0.5069743841182032
42.93,0.5212378843389187
42.94,0.5396630155755291
42.95,0.46553293725864375
42.96,0.4645450314161929
42.97,0.48015452079530796
42.980000000000004,0.44433474505779436
42.99,0.43773579581003713
43.0,0.4344977523286368
43.01,0.4005966070479754
43.02,0.39520405486034466
43.03,0.4168489859429155
43.04,0.3530545023759881
43.050000000000004,0.32558473850973363
43.06,0.3239750680652181
43.07,0.3288524609870806
43.08,0.27996055846026013
43.09,0.24432405031698837
43.1,0.22517054139963885
43.11,0.153924991790995
43.12,0.17420666705908203
43.13,0.14309750211618805
43.14,0.09930005398402027
43.15,0.10901724898428514
43.160000000000004,0.04345862205554557
43.17,0.08253133733597534
43.18,0.05527037973238323
43.19,0.04599077442059885
43.2,0.0624602834851244
43.21,0.07755823434055477
43.22,0.13225904560480234
43.230000000000004,0.11263775183748792
43.24,0.15875755819095227
43.25,0.2444446783999229
43.26,0.2578839454670462
43.27,0.3458044430760794
43.28,0.4206672741120052
43.29,0.431424149592512
43.300000000000004,0.5138630403723049
43.31,0.5289897100381115
43.32,0.6256960582384682
43.33,0.6628194465342729
43.34,0.7135681314975885
43.35,0.7270220145606213
43.36,0.7362888746596924
43.37,0.8103798744756064
43.38,0.7708045074741607
43.39,0.82161890458143
43.4,0.8549530918014416
43.410000000000004,0.837103784984624
43.42,0.8705983286178203
43.43,0.8394048675405309
43.44,0.7878889053578506
43.45,0.7873420874769086
43.46,0.7685305350468981
43.47,0.7165582163251146
43.480000000000004,0.7143221972134042
43.49,0.7076035907408846
43.5,0.6611012664255005
43.51,0.6973432219407399
43.52,0.6826641027276001
43.53,0.6453921648098211
43.54,0.6897824295865447
43.550000000000004,0.6968209573395986
43.56,0.6878627647026243
43.57,0.6790427308915626
43.58,0.7042496354720698
43.59,0.7111496189382414
43.6,0.7073531369932753
43.61,0.6855618168033093
43.62,0.7127294025616124
43.63,0.7339615172380104
43.64,0.691927955003297
43.65,0.7487396792113228
43.660000000000004,0.6832601843801371
43.67,0.6872227547259966
43.68,0.6606061103911547
43.69,0.6682778091870019
43.7,0.6100057880340866
43.71,0.6220258389826246
43.72,0.5942108528071204
43.730000000000004,0.6062756829145387
43.74,0.6103228021458494
43.75,0.5877609472017724
43.76,0.5058728031606998
43.77,0.5925459576185983
43.78,0.5413203293862487
43.79,0.5062238108789104
43.800000000000004,0.5170376133142053
43.81,0.5076023859110048
43.82,0.4787014806106906
43.83,0.487827585745294
43.84,0.45833383575284464
43.85,0.4501501496481476
43.86,0.429174478212101
43.87,0.39552337354564976
43.88,0.41185588212915225
43.89,0.3999647580431735
43.9,0.3740932039627318
43.910000000000004,0.3544306781953647
43.92,0.31485917954574144
43.93,0.26585145204899
43.94,0.2665557590339933
43.95,0.18707287777040407
43.96,0.16869823254835892
43.97,0.1408823007674693
43.980000000000004,0.16393789765827155
43.99,0.1421775872053329
44.0,0.11857784157082037
44.01,0.12461521569388286
44.02,0.08035105891537905
44.03,0.11515054388362707
44.04,0.1192426456050291
44.050000000000004,0.1636400506358868
44.06,0.1719207253857837
44.07,0.2028509064401162
44.08,0.26707917760946365
44.09,0.32341544364442115
44.1,0.34168917163805707
44.11,0.41155717570082107
44.12,0.44696771679597674
44.13,0.47272915338135146
44.14,0.5907222118802701
44.15,0.6546540292673445
44.160000000000004,0.6978893653940689
44.17,0.6943176489669292
44.18,0.7709999479366207
44.19,0.7631757004217877
44.2,0.871571524474234
44.21,0.8366997118222823
44.22,0.9030640362943383
44.230000000000004,0.9030134098838879
44.24,0.8621811657347519
44.25,0.8523230604734849
44.26,0.8765706788675344
44.27,0.8368246647960794
44.28,0.8427767077405532
44.29,0.8126294603760376
44.300000000000004,0.7658578879671671
44.31,0.7386140094724576
44.32,0.7781072194690081
44.33,0.7462953526540328
44.34,0.7348268944073162
44.35,0.7540317757997832
44.36,0.7586826254376057
44.37,0.7227545768467083
44.38,0.7204784310176287
44.39,0.7409161328438907
44.4,0.7022654975864943
44.410000000000004,0.7422967860842921
44.42,0.7546767310481872
44.43,0.7624759654110852
44.44,0.7077062149460467
44.45,0.7372355719229622
44.46,0.7359501896420155
44.47,0.7573275728082767
44.480000000000004,0.7629775936381203
44.49,0.7805903995975134
44.5,0.7280603798194861
44.51,0.7182120481003907
44.52,0.7436611613250393
44.53,0.7111787045529228
44.54,0.7186878367202733
44.550000000000004,0.6815300118194128
44.56,0.6335896602125576
44.57,0.6144407908121695
44.58,0.5948492268693966
44.59,0.630877909858784
44.6,0.6298189413561295
44.61,0.6327923049542109
44.62,0.5991168033438838
44.63,0.5960973999040998
44.64,0.5470375137690023
44.65,0.5243692645250099
44.660000000000004,0.5595889877859557
44.67,0.5389858869762534
44.68,0.5198287808340848
44.69,0.5122240960746826
44.7,0.4947264287458598
44.71,0.4979240637505902
44.72,0.47714936425300375
44.730000000000004,0.43663133360379197
44.74,0.4174465450231331
44.75,0.3819271197382817
44.76,0.3303577226624479
44.77,0.32737189408344036
44.78,0.2483781633441626
44.79,0.27397996924014406
44.800000000000004,0.1955717859060399
44.81,0.2041855565781011
44.82,0.1579058955186892
44.83,0.1736395528369122
44.84,0.1504637304677248
44.85,0.11195542627837182
44.86,0.1612763987106445
44.87,0.15018352813052624
44.88,0.20218189039271817
44.89,0.20899320867603663
44.9,0.25170677554047227
44.910000000000004,0.26158604495955573
44.92,0.3159930222155897
44.93,0.3697196539157155
44.94,0.45363236163773984
44.95,0.5285461050008317
44.96,0.5297448598579455
44.97,0.628722054448442
44.980000000000004,0.6100554191258107
44.99,0.6833065014845038
45.0,0.7354434745196128
45.01,0.7679998722252179
45.02,0.7980713650648816
45.03,0.8716970634839574
45.04,0.8792114349550589
45.050000000000004,0.9072710284215157
45.06,0.9222065710838326
45.07,0.9142380280845075
45.08,0.919026706465447
45.09,0.8937180983940701
45.1,0.8556885315680286
45.11,0.890559525839276
45.12,0.8358045219960594
45.13,0.8095225486142615
45.14,0.808249886607725
45.15,0.774294901927556
45.160000000000004,0.7697792883151656
45.17,0.7735271198469493
45.18,0.7628508847299017
45.19,0.7268284426457859
45.2,0.7310183273490419
45.21,0.7638891927965448
45.22,0.7509008088531881
45.230000000000004,0.7884920244671918
